'Id: "" Comment: "Integrate frame 2018_8-7 FAGACs_5PEAI001.gfrmwith cursor Full Frame Cursor #8" Operator: "MAF user" Anode: "Cu" Scantype: "TwoTheta" TimePerStep: "90" 
10.7399997711182 5.97955267988964
10.7599997706711 5.86619429531102
10.7799997702241 6.15417655692435
10.7999997697771 6.27746889013703
10.81999976933 6.15875498701454
10.839999768883 5.84478284960805
10.859999768436 5.729524721575
10.8799997679889 5.45167031933924
10.8999997675419 5.39479175485833
10.9199997670949 5.24692806382086
10.9399997666478 5.07850221260326
10.9599997662008 5.043760070409
10.9799997657537 5.00847131106382
10.9999997653067 5.07353772094831
11.0199997648597 4.94779525988765
11.0399997644126 4.95949166918824
11.0599997639656 4.92031266712689
11.0799997635186 4.94626556858672
11.0999997630715 4.83882612059534
11.1199997626245 4.78334055139709
11.1399997621775 4.73584592287185
11.1599997617304 4.77787289930403
11.1799997612834 4.85191999333735
11.1999997608364 4.88524558905583
11.2199997603893 4.84261194007925
11.2399997599423 4.8531258816207
11.2599997594953 4.91093479754209
11.2799997590482 4.93208672821125
11.2999997586012 4.95043086154871
11.3199997581542 4.90331129318051
11.3399997577071 4.92581298359953
11.3599997572601 4.90767102425461
11.379999756813 4.98611672891049
11.399999756366 4.95821416649826
11.419999755919 4.92011146536918
11.4399997554719 4.78456374308468
11.4599997550249 4.80477544754197
11.4799997545779 4.78938794897465
11.4999997541308 4.84433857449948
11.5199997536838 4.83517157494304
11.5399997532368 4.79700983954465
11.5599997527897 4.75572806515891
11.5799997523427 4.77690968540902
11.5999997518957 4.73308480478822
11.6199997514486 4.72597760354082
11.6399997510016 4.77813011154616
11.6599997505546 4.92690541471582
11.6799997501075 4.94198391492044
11.6999997496605 4.82925137293738
11.7199997492135 4.74452743682318
11.7399997487664 4.71172708120544
11.7599997483194 4.74652323954725
11.7799997478724 4.77922742295297
11.7999997474253 4.82894833920658
11.8199997469783 4.90908013425911
11.8399997465312 4.93204781596153
11.8599997460842 4.92027298517167
11.8799997456372 4.86297949881335
11.8999997451901 4.86380259729222
11.9199997447431 4.85455984551028
11.9399997442961 4.871056494195
11.959999743849 4.91682899934805
11.979999743402 4.8690608338932
11.999999742955 4.77476163529099
12.0199997425079 4.7029263558515
12.0399997420609 4.78148157292286
12.0599997416139 4.81948552793734
12.0799997411668 4.88136340212742
12.0999997407198 4.86691292950138
12.1199997402728 4.90242720933065
12.1399997398257 4.88980632314718
12.1599997393787 4.82111774749812
12.1799997389317 4.74717729617184
12.1999997384846 4.74604285304277
12.2199997380376 4.86819060764948
12.2399997375906 4.884902502958
12.2599997371435 4.78077983962456
12.2799997366965 4.68797476695106
12.2999997362494 4.73595850612174
12.3199997358024 4.75419168238935
12.3399997353554 4.74237452293496
12.3599997349083 4.67892048169947
12.3799997344613 4.66171313938173
12.3999997340143 4.66900990006853
12.4199997335672 4.66770683851094
12.4399997331202 4.71881870478536
12.4599997326732 4.72316702737171
12.4799997322261 4.73038524465097
12.4999997317791 4.73307805213855
12.5199997313321 4.78174445819987
12.539999730885 4.70696683506227
12.559999730438 4.62911545104198
12.579999729991 4.58290130533272
12.5999997295439 4.69279815987885
12.6199997290969 4.77440701301335
12.6399997286499 4.86329653368159
12.6599997282028 4.88949960594636
12.6799997277558 4.83535352178983
12.6999997273088 4.85399768424504
12.7199997268617 4.83210441268579
12.7399997264147 4.81140474435736
12.7599997259676 4.75588284927981
12.7799997255206 4.81963047233867
12.7999997250736 4.91320949111698
12.8199997246265 4.84225392016923
12.8399997241795 4.76799875484745
12.8599997237325 4.77032522674615
12.8799997232854 4.84572899326396
12.8999997228384 4.87674380508077
12.9199997223914 4.80103208919833
12.9399997219443 4.76154267726883
12.9599997214973 4.70665939957791
12.9799997210503 4.68239845605681
12.9999997206032 4.71061774327282
13.0199997201562 4.72265373784344
13.0399997197092 4.75971322575147
13.0599997192621 4.71262509413705
13.0799997188151 4.74204134372753
13.0999997183681 4.81715810143556
13.119999717921 4.87765019157433
13.139999717474 4.91327153370718
13.1599997170269 4.85780090698523
13.1799997165799 4.88466337128299
13.1999997161329 4.87855134049289
13.2199997156858 4.86479263008308
13.2399997152388 4.89630766273716
13.2599997147918 4.94075201642751
13.2799997143447 4.91382546544362
13.2999997138977 4.93413799106701
13.3199997134507 4.93031483517082
13.3399997130036 4.9905868716109
13.3599997125566 4.91176758095163
13.3799997121096 4.93243056891628
13.3999997116625 4.95637208897243
13.4199997112155 5.00899547277802
13.4399997107685 4.96087319038158
13.4599997103214 4.89911415812577
13.4799997098744 4.95778866084609
13.4999997094274 5.03995896834161
13.5199997089803 5.11207593363252
13.5399997085333 5.20443283234616
13.5599997080863 5.31739599464114
13.5799997076392 5.44914451778242
13.5999997071922 5.55052096801252
13.6199997067451 5.5836117774848
13.6399997062981 5.50769509084892
13.6599997058511 5.3894876961978
13.679999705404 5.18360169329522
13.699999704957 5.04571809176199
13.71999970451 4.94618279864381
13.7399997040629 4.92563657685536
13.7599997036159 4.98817273460454
13.7799997031689 4.98547679248463
13.7999997027218 5.03450663742851
13.8199997022748 5.00095643546691
13.8399997018278 5.06752196284174
13.8599997013807 5.05471891023772
13.8799997009337 5.08151373529464
13.8999997004867 5.09359681108077
13.9199997000396 5.15528755617489
13.9399996995926 5.12758343918023
13.9599996991456 5.15460307856904
13.9799996986985 5.26971643710826
13.9999996982515 5.30366152719695
14.0199996978045 5.27913641884867
14.0399996973574 5.24042113155842
14.0599996969104 5.21270086575502
14.0799996964633 5.3195010686264
14.0999996960163 5.4372932374467
14.1199996955693 5.47925913758179
14.1399996951222 5.47456413025926
14.1599996946752 5.53017510373908
14.1799996942282 5.51817175264554
14.1999996937811 5.55406191121214
14.2199996933341 5.67687692225302
14.2399996928871 5.75942707216195
14.25999969244 5.861453403265
14.279999691993 6.18871072217043
14.299999691546 6.24606919043661
14.3199996910989 6.31416856305366
14.3399996906519 6.82434907452947
14.3599996902049 6.98525551892892
14.3799996897578 7.2715604688799
14.3999996893108 8.37315271422425
14.4199996888638 8.70062523476432
14.4399996884167 9.33387748389628
14.4599996879697 12.1429743875943
14.4799996875226 13.1801437159208
14.4999996870756 14.4491490679465
14.5199996866286 21.3659157433437
14.5399996861815 24.2191831068534
14.5599996857345 27.7748484598772
14.5799996852875 47.9167800976922
14.5999996848404 57.5540277117053
14.6199996843934 66.2870078758918
14.6399996839464 116.726954951339
14.6599996834993 134.408287684076
14.6799996830523 140.841900070053
14.6999996826053 158.312601539663
14.7199996821582 156.878872200076
14.7399996817112 150.950518208499
14.7599996812642 99.9986723039322
14.7799996808171 78.1246085576951
14.7999996803701 69.583416763101
14.8199996799231 31.5432615854802
14.839999679476 18.9171622809114
14.859999679029 16.3415812332408
14.879999678582 10.0776309691115
14.8999996781349 7.88414118950429
14.9199996776879 7.47480094026285
14.9399996772408 6.62578053134591
14.9599996767938 6.28352529680398
14.9799996763468 6.21252238818968
14.9999996758997 5.93901143641141
15.0199996754527 5.780924639041
15.0399996750057 5.68420581635801
15.0599996745586 5.64398946622519
15.0799996741116 5.57629002871444
15.0999996736646 5.55139674451998
15.1199996732175 5.47131134666062
15.1399996727705 5.43398565439467
15.1599996723235 5.43135635255993
15.1799996718764 5.38933948141774
15.1999996714294 5.37417283711699
15.2199996709824 5.37633216471889
15.2399996705353 5.31300129124827
15.2599996700883 5.24541085697974
15.2799996696413 5.23241377048172
15.2999996691942 5.16913106265189
15.3199996687472 5.09214443685548
15.3399996683002 5.10835907224677
15.3599996678531 5.11839081790115
15.3799996674061 5.10155156389291
15.399999666959 5.03217501668469
15.419999666512 5.00979909286623
15.439999666065 4.92466559671767
15.4599996656179 4.92515453208651
15.4799996651709 4.91847239379126
15.4999996647239 4.96947726520362
15.5199996642768 4.98364069137412
15.5399996638298 4.98115969688747
15.5599996633828 4.96240411533664
15.5799996629357 4.89685891820128
15.5999996624887 4.83468034421727
15.6199996620417 4.84303007275619
15.6399996615946 4.93582611089501
15.6599996611476 4.98503566409048
15.6799996607006 4.95067447869134
15.6999996602535 4.93134678101162
15.7199996598065 4.88528622908889
15.7399996593595 4.94371770185618
15.7599996589124 4.97579519981404
15.7799996584654 4.9833833642222
15.7999996580184 4.94964823691854
15.8199996575713 4.9726475902155
15.8399996571243 4.99290367781011
15.8599996566772 4.94336761561338
15.8799996562302 4.88547782451554
15.8999996557832 4.88452628828921
15.9199996553361 4.91940440251743
15.9399996548891 4.94441501897255
15.9599996544421 4.9271758889414
15.979999653995 4.93754167398037
15.999999653548 4.95282808788952
16.019999653101 4.92563038461515
16.0399996526539 4.94665207314101
16.0599996522069 4.93868540678388
16.0799996517599 4.95543426244875
16.0999996513128 4.93061008143846
16.1199996508658 4.92823523429451
16.1399996504188 4.94075608791464
16.1599996499717 4.93379537587133
16.1799996495247 4.96684298359682
16.1999996490777 5.03816942216166
16.2199996486306 5.10925424455094
16.2399996481836 5.0892972028411
16.2599996477365 5.06072943074087
16.2799996472895 4.99025640477771
16.2999996468425 4.93800205619349
16.3199996463954 4.95448389207513
16.3399996459484 5.03190159742212
16.3599996455014 5.11221009793171
16.3799996450543 5.09471256608859
16.3999996446073 5.05360071463138
16.4199996441603 5.04240781633191
16.4399996437132 5.02963825817611
16.4599996432662 5.04379001643254
16.4799996428192 5.04453817875788
16.4999996423721 5.02927030972305
16.5199996419251 5.01513069999456
16.5399996414781 5.03178566878713
16.559999641031 5.05367284568348
16.579999640584 5.08938484939834
16.599999640137 5.1152740832993
16.6199996396899 5.08294075645832
16.6399996392429 5.03937681894998
16.6599996387959 5.03216881853016
16.6799996383488 5.00428765643365
16.6999996379018 4.96613018455878
16.7199996374547 5.00319430806073
16.7399996370077 5.09533996059427
16.7599996365607 5.11859227015728
16.7799996361136 5.07425187736602
16.7999996356666 5.00172376875468
16.8199996352196 4.96963244309783
16.8399996347725 5.04038464262216
16.8599996343255 5.17125350097898
16.8799996338785 5.19243089104963
16.8999996334314 5.14770430089444
16.9199996329844 5.03891639233841
16.9399996325374 5.01279907703541
16.9599996320903 5.04826874743758
16.9799996316433 5.03287765834234
16.9999996311963 5.01244343256248
17.0199996307492 5.02605948145476
17.0399996303022 5.03838765651162
17.0599996298552 5.0421452900066
17.0799996294081 5.04664061382863
17.0999996289611 5.09912540081657
17.1199996285141 5.11373022814866
17.139999628067 5.10823094411459
17.15999962762 5.10870346644272
17.1799996271729 5.14926163088357
17.1999996267259 5.08684723605548
17.2199996262789 5.04625651476475
17.2399996258318 5.03111184800939
17.2599996253848 5.08670175629426
17.2799996249378 5.07865768559779
17.2999996244907 5.02893224264005
17.3199996240437 5.01504604358716
17.3399996235967 5.07052513691751
17.3599996231496 5.08635117427068
17.3799996227026 5.05879391035374
17.3999996222556 5.0487089539109
17.4199996218085 5.08865249405971
17.4399996213615 5.09690711610047
17.4599996209145 5.08029781613885
17.4799996204674 5.07917926613803
17.4999996200204 5.09706319713554
17.5199996195734 5.12582819502574
17.5399996191263 5.18669026894616
17.5599996186793 5.24013579721462
17.5799996182323 5.24776565245615
17.5999996177852 5.25783443247912
17.6199996173382 5.23421005697628
17.6399996168911 5.19496306561004
17.6599996164441 5.15803734764725
17.6799996159971 5.20749991191014
17.69999961555 5.2872573492353
17.719999615103 5.33376099275501
17.739999614656 5.34614115448218
17.7599996142089 5.34681013900873
17.7799996137619 5.36768605128407
17.7999996133149 5.40714796862892
17.8199996128678 5.40471403444734
17.8399996124208 5.41018290135043
17.8599996119738 5.40000909302735
17.8799996115267 5.37798984411184
17.8999996110797 5.32921857995137
17.9199996106327 5.29643529884647
17.9399996101856 5.33949347507506
17.9599996097386 5.3802195563885
17.9799996092916 5.31370014478623
17.9999996088445 5.28361821377376
18.0199996083975 5.34414217474558
18.0399996079504 5.39471495955759
18.0599996075034 5.38643912072011
18.0799996070564 5.3767032759094
18.0999996066093 5.37021823269458
18.1199996061623 5.34874696926155
18.1399996057153 5.32131353340712
18.1599996052682 5.36487808456889
18.1799996048212 5.41688901252105
18.1999996043742 5.42798718655683
18.2199996039271 5.44675255442538
18.2399996034801 5.42201063625651
18.2599996030331 5.39481794016406
18.279999602586 5.4202365340772
18.299999602139 5.46796285599786
18.319999601692 5.4932651420432
18.3399996012449 5.45649547626004
18.3599996007979 5.52089594469992
18.3799996003509 5.55310912328002
18.3999995999038 5.55080623104186
18.4199995994568 5.50333337993049
18.4399995990098 5.54431080308681
18.4599995985627 5.65724025395075
18.4799995981157 5.68302520922674
18.4999995976686 5.68612763544433
18.5199995972216 5.66359141202104
18.5399995967746 5.70644317168528
18.5599995963275 5.64470620981744
18.5799995958805 5.51394376301225
18.5999995954335 5.37313566789729
18.6199995949864 5.39022480426875
18.6399995945394 5.45093603112006
18.6599995940924 5.46347068676932
18.6799995936453 5.48722525274794
18.6999995931983 5.52098492065721
18.7199995927513 5.54183165800547
18.7399995923042 5.53971736176396
18.7599995918572 5.55451026698535
18.7799995914102 5.60099258099678
18.7999995909631 5.5930057674318
18.8199995905161 5.5718118988902
18.8399995900691 5.555633125236
18.859999589622 5.55590888440136
18.879999589175 5.57410420801671
18.899999588728 5.58967222459899
18.9199995882809 5.5923686201174
18.9399995878339 5.60204919104213
18.9599995873868 5.51859076842739
18.9799995869398 5.52169948451987
18.9999995864928 5.55369701086917
19.0199995860457 5.65432075972583
19.0399995855987 5.68662318060544
19.0599995851517 5.71910967928755
19.0799995847046 5.72447444311298
19.0999995842576 5.7623211251922
19.1199995838106 5.77871597078467
19.1399995833635 5.76203258462183
19.1599995829165 5.70186681434292
19.1799995824695 5.61861047959937
19.1999995820224 5.62605230297463
19.2199995815754 5.65416006089841
19.2399995811284 5.70214546337422
19.2599995806813 5.68422928407818
19.2799995802343 5.74898884623998
19.2999995797873 5.79186056710347
19.3199995793402 5.74410723155537
19.3399995788932 5.69481717589135
19.3599995784462 5.68951760401762
19.3799995779991 5.78901193781573
19.3999995775521 5.77579159750941
19.419999577105 5.77257365323582
19.439999576658 5.7841633274517
19.459999576211 5.82589987274226
19.4799995757639 5.84851783529431
19.4999995753169 5.85335765410202
19.5199995748699 5.89417199752725
19.5399995744228 5.87823393421453
19.5599995739758 5.87216508346279
19.5799995735288 5.87982048715906
19.5999995730817 5.90888954084019
19.6199995726347 5.95552775285227
19.6399995721877 5.98744857144378
19.6599995717406 5.97343741980511
19.6799995712936 5.95448316037952
19.6999995708466 5.94098534049655
19.7199995703995 5.9670705960125
19.7399995699525 5.96212778046805
19.7599995695055 5.9271756892872
19.7799995690584 5.90013058597196
19.7999995686114 5.87184504336508
19.8199995681643 5.94899996191892
19.8399995677173 5.94629226387769
19.8599995672703 5.99593333153097
19.8799995668232 6.01740541422239
19.8999995663762 6.04690398836225
19.9199995659292 6.02706809553953
19.9399995654821 6.00417224637951
19.9599995650351 5.97878526768299
19.9799995645881 5.99657270819455
19.999999564141 5.95944010790941
20.019999563694 5.99506489863507
20.039999563247 5.98953044770538
20.0599995627999 6.04424949482536
20.0799995623529 6.09555449570046
20.0999995619059 6.10319445972472
20.1199995614588 6.12357983685617
20.1399995610118 6.16323165155063
20.1599995605648 6.21659571271965
20.1799995601177 6.16712253909949
20.1999995596707 6.12252844324593
20.2199995592237 6.12698436572031
20.2399995587766 6.16867007867428
20.2599995583296 6.21268475782489
20.2799995578825 6.23549363786608
20.2999995574355 6.22098971995399
20.3199995569885 6.14432043293519
20.3399995565414 6.17424588376876
20.3599995560944 6.21098653390185
20.3799995556474 6.25484319707137
20.3999995552003 6.25426779997805
20.4199995547533 6.2970739539446
20.4399995543063 6.31307881157665
20.4599995538592 6.30314397113516
20.4799995534122 6.30624933148119
20.4999995529652 6.30628863772149
20.5199995525181 6.30047336003855
20.5399995520711 6.34235445028611
20.5599995516241 6.47022677761589
20.579999551177 6.64676843499159
20.59999955073 6.74987980936501
20.619999550283 6.78418762080002
20.6399995498359 6.7882573456159
20.6599995493889 6.91956475492823
20.6799995489419 7.1747820689621
20.6999995484948 7.53503833981271
20.7199995480478 7.88728726885571
20.7399995476007 8.23529230981565
20.7599995471537 8.52861826811014
20.7799995467067 8.71110878876771
20.7999995462596 8.77802917786239
20.8199995458126 8.85041372335335
20.8399995453656 8.82582191430246
20.8599995449185 8.69910888472685
20.8799995444715 8.47414926512367
20.8999995440245 8.22771829639824
20.9199995435774 7.90000224946355
20.9399995431304 7.55708505823046
20.9599995426834 7.32162187339214
20.9799995422363 7.1452256835087
20.9999995417893 6.9329242729937
21.0199995413423 6.75170729516811
21.0399995408952 6.64785094199823
21.0599995404482 6.58338058730071
21.0799995400012 6.47119547683674
21.0999995395541 6.4554553439288
21.1199995391071 6.51938705831211
21.13999953866 6.58338384481309
21.159999538213 6.55069340059286
21.179999537766 6.43604162468658
21.1999995373189 6.43177552479452
21.2199995368719 6.46933784293285
21.2399995364249 6.49231927073424
21.2599995359778 6.51365502437311
21.2799995355308 6.55544722433756
21.2999995350838 6.62187584648361
21.3199995346367 6.71791294804625
21.3399995341897 6.74229314003173
21.3599995337427 6.65160461169849
21.3799995332956 6.5865149043662
21.3999995328486 6.58472492522362
21.4199995324016 6.61359832544398
21.4399995319545 6.67313587244342
21.4599995315075 6.65692483364527
21.4799995310605 6.64891547849201
21.4999995306134 6.63833467209267
21.5199995301664 6.714103798003
21.5399995297194 6.77785883148274
21.5599995292723 6.77256069545913
21.5799995288253 6.7870882811107
21.5999995283782 6.75237105135976
21.6199995279312 6.76425468716275
21.6399995274842 6.76915235016256
21.6599995270371 6.76466030614826
21.6799995265901 6.81418791465494
21.6999995261431 6.8502855189704
21.719999525696 6.87018764955021
21.739999525249 6.82634665144889
21.759999524802 6.83278120316923
21.7799995243549 6.80547365278702
21.7999995239079 6.81597234004716
21.8199995234609 6.91012156724711
21.8399995230138 6.99093432398524
21.8599995225668 7.00004409588424
21.8799995221198 6.95768541786725
21.8999995216727 6.89405324706151
21.9199995212257 6.8508119385337
21.9399995207787 6.82049093827323
21.9599995203316 6.82286614868511
21.9799995198846 6.81511825517568
21.9999995194376 6.81115046896528
22.0199995189905 6.8447321872996
22.0399995185435 6.91996930383351
22.0599995180964 6.89882729556933
22.0799995176494 6.7842498428543
22.0999995172024 6.74729644820023
22.1199995167553 6.87571488642583
22.1399995163083 6.9820078272126
22.1599995158613 6.9984022776346
22.1799995154142 6.93951012735302
22.1999995149672 6.91827999665083
22.2199995145202 6.9582983880653
22.2399995140731 6.996916386425
22.2599995136261 7.00339319737448
22.2799995131791 6.98185415630862
22.299999512732 6.98418699859023
22.319999512285 6.98113078044703
22.339999511838 7.04456557199171
22.3599995113909 7.11184250947593
22.3799995109439 7.1511276598167
22.3999995104969 7.12059666977711
22.4199995100498 7.07825158580076
22.4399995096028 7.15593431367998
22.4599995091558 7.33725617913476
22.4799995087087 7.44329636409019
22.4999995082617 7.47675558072466
22.5199995078146 7.53564910265552
22.5399995073676 7.61153195109647
22.5599995069206 7.71653396828286
22.5799995064735 7.59959955587574
22.5999995060265 7.51593245858028
22.6199995055795 7.41787250051891
22.6399995051324 7.39597498371849
22.6599995046854 7.33412963369878
22.6799995042384 7.31323703335598
22.6999995037913 7.37055663076814
22.7199995033443 7.41369480010666
22.7399995028973 7.3730018240936
22.7599995024502 7.30634125653189
22.7799995020032 7.28563647821818
22.7999995015562 7.26025400513852
22.8199995011091 7.22579299338526
22.8399995006621 7.19017974651081
22.8599995002151 7.16368717458263
22.879999499768 7.15204894579335
22.899999499321 7.1988052192298
22.9199994988739 7.24665041353251
22.9399994984269 7.26508669312466
22.9599994979799 7.27431200535825
22.9799994975328 7.31933773077389
22.9999994970858 7.35365975643038
23.0199994966388 7.38304795517159
23.0399994961917 7.39838805065703
23.0599994957447 7.33829565159497
23.0799994952977 7.21855065313854
23.0999994948506 7.1525537433014
23.1199994944036 7.16320519540533
23.1399994939566 7.16650547846996
23.1599994935095 7.10635817754618
23.1799994930625 7.13969058073986
23.1999994926155 7.26045105760167
23.2199994921684 7.32143238328083
23.2399994917214 7.29767940005596
23.2599994912744 7.33971814998479
23.2799994908273 7.43705856055337
23.2999994903803 7.42890954174554
23.3199994899333 7.39647738793363
23.3399994894862 7.42494289174618
23.3599994890392 7.43645501251482
23.3799994885921 7.39664779007735
23.3999994881451 7.38740142462896
23.4199994876981 7.45175275933701
23.439999487251 7.47870361969894
23.459999486804 7.47897377483693
23.479999486357 7.50035295407302
23.4999994859099 7.4760588946299
23.5199994854629 7.45863666054167
23.5399994850159 7.43141004522229
23.5599994845688 7.46236084888092
23.5799994841218 7.51729209210339
23.5999994836748 7.62877373589958
23.6199994832277 7.61066612929055
23.6399994827807 7.49460349938224
23.6599994823337 7.42212384437779
23.6799994818866 7.43669531279253
23.6999994814396 7.40089865915375
23.7199994809926 7.39401634928546
23.7399994805455 7.3859060961506
23.7599994800985 7.40213184788535
23.7799994796515 7.36356411928047
23.7999994792044 7.39039701082443
23.8199994787574 7.33785729448346
23.8399994783103 7.25780491777304
23.8599994778633 7.20938505265357
23.8799994774163 7.27481257181548
23.8999994769692 7.29387596657257
23.9199994765222 7.25434681963168
23.9399994760752 7.25432196794506
23.9599994756281 7.26230451200497
23.9799994751811 7.29320707058342
23.9999994747341 7.33633028252799
24.019999474287 7.39940945493214
24.03999947384 7.38391049437154
24.059999473393 7.3449112153433
24.0799994729459 7.33338815975406
24.0999994724989 7.3915238452399
24.1199994720519 7.42347927334571
24.1399994716048 7.35994492673108
24.1599994711578 7.33567276163671
24.1799994707108 7.34233657172498
24.1999994702637 7.36028987352027
24.2199994698167 7.31952510813113
24.2399994693697 7.27184300315639
24.2599994689226 7.2361069844367
24.2799994684756 7.30619414992394
24.2999994680285 7.40307229091588
24.3199994675815 7.4252341447057
24.3399994671345 7.37553300015931
24.3599994666874 7.3383696712868
24.3799994662404 7.31007420176883
24.3999994657934 7.30840185389176
24.4199994653463 7.32869297838131
24.4399994648993 7.39662185813937
24.4599994644523 7.33192133065002
24.4799994640052 7.27238682271075
24.4999994635582 7.24701921186581
24.5199994631112 7.30648780171271
24.5399994626641 7.39557731863775
24.5599994622171 7.4236754438283
24.5799994617701 7.41218450494594
24.599999461323 7.39330922341841
24.619999460876 7.36393715092138
24.639999460429 7.35689834587442
24.6599994599819 7.35494972223342
24.6799994595349 7.36004734881428
24.6999994590878 7.35542843628011
24.7199994586408 7.35597100090624
24.7399994581938 7.36421607619544
24.7599994577467 7.39008526898564
24.7799994572997 7.35004130243174
24.7999994568527 7.36940891802313
24.8199994564056 7.36390130824163
24.8399994559586 7.41518897423358
24.8599994555116 7.41527905960907
24.8799994550645 7.39644623555283
24.8999994546175 7.40912036323798
24.9199994541705 7.46636392336706
24.9399994537234 7.47196832595898
24.9599994532764 7.46164232338137
24.9799994528294 7.35626028597097
24.9999994523823 7.32680991542888
25.0199994519353 7.30022045384339
25.0399994514883 7.34909879298654
25.0599994510412 7.34644694006922
25.0799994505942 7.35908001519449
25.0999994501472 7.42628575005135
25.1199994497001 7.51256899582079
25.1399994492531 7.43587963023294
25.159999448806 7.4134788877012
25.179999448359 7.47634724053203
25.199999447912 7.59136579379788
25.2199994474649 7.58241492676853
25.2399994470179 7.5164117307037
25.2599994465709 7.50970951567525
25.2799994461238 7.64301623718964
25.2999994456768 7.74933948002992
25.3199994452298 7.74348542174215
25.3399994447827 7.670382299516
25.3599994443357 7.63944833897112
25.3799994438887 7.66791104046533
25.3999994434416 7.6319104853039
25.4199994429946 7.60027604339801
25.4399994425476 7.51944577719495
25.4599994421005 7.46313740097119
25.4799994416535 7.36883910515915
25.4999994412065 7.40459536692735
25.5199994407594 7.41270086788005
25.5399994403124 7.46927076800733
25.5599994398654 7.45810768021309
25.5799994394183 7.42575033981288
25.5999994389713 7.38367445508243
25.6199994385242 7.35060318894463
25.6399994380772 7.36610012224865
25.6599994376302 7.43664332092723
25.6799994371831 7.46370583106728
25.6999994367361 7.39422304848818
25.7199994362891 7.30257366349584
25.739999435842 7.26313279223088
25.759999435395 7.27507231112619
25.779999434948 7.27421560649487
25.7999994345009 7.29767206069845
25.8199994340539 7.26729909598666
25.8399994336069 7.29192912887599
25.8599994331598 7.41449589694683
25.8799994327128 7.50496498894997
25.8999994322658 7.63720248996727
25.9199994318187 7.5985969910507
25.9399994313717 7.56805762904512
25.9599994309247 7.44541745669393
25.9799994304776 7.44694719722773
25.9999994300306 7.42730703271666
26.0199994295836 7.46787998163682
26.0399994291365 7.48308321918816
26.0599994286895 7.54172545084938
26.0799994282424 7.56150349819188
26.0999994277954 7.55084049588854
26.1199994273484 7.52535019554766
26.1399994269013 7.45732415885614
26.1599994264543 7.44983563920902
26.1799994260073 7.4541861387207
26.1999994255602 7.56056746428952
26.2199994251132 7.5608206736295
26.2399994246662 7.54277756614433
26.2599994242191 7.45823640641074
26.2799994237721 7.43868724019953
26.2999994233251 7.44840539003374
26.319999422878 7.46560486397529
26.339999422431 7.52023296177868
26.359999421984 7.49062258378226
26.3799994215369 7.54919574846317
26.3999994210899 7.48318317986003
26.4199994206429 7.46782300537705
26.4399994201958 7.41712990871646
26.4599994197488 7.43431611771674
26.4799994193017 7.47390075583045
26.4999994188547 7.56455527021925
26.5199994184077 7.67666402804922
26.5399994179606 7.59806457638077
26.5599994175136 7.50906080760087
26.5799994170666 7.44497150078736
26.5999994166195 7.41066661124147
26.6199994161725 7.3602077155946
26.6399994157255 7.36185303525539
26.6599994152784 7.34814536998271
26.6799994148314 7.3553290909158
26.6999994143844 7.39119092626863
26.7199994139373 7.47691841399304
26.7399994134903 7.52207327372048
26.7599994130433 7.50192471229174
26.7799994125962 7.47903551004036
26.7999994121492 7.44052675114449
26.8199994117022 7.45164980019286
26.8399994112551 7.53034809418433
26.8599994108081 7.62749945995821
26.8799994103611 7.70638150165717
26.899999409914 7.75273131512068
26.919999409467 7.74039536126802
26.9399994090199 7.72319897042875
26.9599994085729 7.70051916161021
26.9799994081259 7.79296720037026
26.9999994076788 7.90575495905418
27.0199994072318 8.01532770012548
27.0399994067848 8.15196352334164
27.0599994063377 8.19778909717065
27.0799994058907 8.2829161999111
27.0999994054437 8.38399671726738
27.1199994049966 8.55183926881152
27.1399994045496 8.62189830379981
27.1599994041026 8.74770386257859
27.1799994036555 8.78019981061077
27.1999994032085 8.80003026337121
27.2199994027615 8.78803244759115
27.2399994023144 8.74703318570591
27.2599994018674 8.66974415518529
27.2799994014204 8.51586980966885
27.2999994009733 8.36847719563626
27.3199994005263 8.23063408449066
27.3399994000793 8.13831300124816
27.3599993996322 8.03817084623497
27.3799993991852 8.01255326275902
27.3999993987381 7.86504166423834
27.4199993982911 7.7611141722475
27.4399993978441 7.61883736240681
27.459999397397 7.56898493383574
27.47999939695 7.54241697283985
27.499999396503 7.52703707662247
27.5199993960559 7.5861060039386
27.5399993956089 7.58711280352437
27.5599993951619 7.62092142089217
27.5799993947148 7.58676945699969
27.5999993942678 7.58980239640889
27.6199993938208 7.58281206192247
27.6399993933737 7.59217772625965
27.6599993929267 7.62610808675631
27.6799993924797 7.65263191655021
27.6999993920326 7.7069553828214
27.7199993915856 7.66826260570807
27.7399993911386 7.70603582687642
27.7599993906915 7.67967344683126
27.7799993902445 7.66753386533108
27.7999993897974 7.5910072131647
27.8199993893504 7.68982443145028
27.8399993889034 7.99967894585839
27.8599993884563 8.18355873275422
27.8799993880093 8.27108238749566
27.8999993875623 8.34189251443702
27.9199993871152 8.38484085652692
27.9399993866682 8.28812921348214
27.9599993862212 8.15290243863662
27.9799993857741 8.15885013044966
27.9999993853271 8.10046328405005
28.0199993848801 8.01609350272751
28.039999384433 7.95698642693531
28.059999383986 7.99971412780435
28.079999383539 7.97271617249012
28.0999993830919 7.89895195668688
28.1199993826449 7.85346002654061
28.1399993821979 7.7770156300939
28.1599993817508 7.75270598358148
28.1799993813038 7.78724842440429
28.1999993808568 7.97411991122266
28.2199993804097 8.11339867558217
28.2399993799627 8.10437600656773
28.2599993795156 8.05636048432253
28.2799993790686 7.98622578818081
28.2999993786216 8.0747660971041
28.3199993781745 8.18954373790524
28.3399993777275 8.27778003975363
28.3599993772805 8.29588140875011
28.3799993768334 8.26860459890858
28.3999993763864 8.23145817592613
28.4199993759394 8.18729838026669
28.4399993754923 8.13339937055815
28.4599993750453 8.09638908288061
28.4799993745983 8.12856083145712
28.4999993741512 8.25756974606331
28.5199993737042 8.30362437011768
28.5399993732572 8.21964673385035
28.5599993728101 8.20303788099493
28.5799993723631 8.25493905781064
28.5999993719161 8.34487319106902
28.619999371469 8.49982519181695
28.639999371022 8.53822427087608
28.659999370575 8.57273230038051
28.6799993701279 8.780854252837
28.6999993696809 8.93980182682394
28.7199993692338 8.98367548990913
28.7399993687868 9.28834753352639
28.7599993683398 9.45337853565966
28.7799993678927 9.56809897287217
28.7999993674457 10.0810015142699
28.8199993669987 10.3283520657429
28.8399993665516 10.4913036139538
28.8599993661046 11.2868135697792
28.8799993656576 11.8685093435792
28.8999993652105 12.0885130490353
28.9199993647635 13.0926706517663
28.9399993643165 13.8159956032859
28.9599993638694 14.1569846244093
28.9799993634224 15.430198468265
28.9999993629754 16.4464081104355
29.0199993625283 16.863906884902
29.0399993620813 18.8135048504468
29.0599993616343 20.656426589033
29.0799993611872 21.728552857523
29.0999993607402 25.5190177963025
29.1199993602932 29.6256106343648
29.1399993598461 31.9809336018481
29.1599993593991 38.9589161102083
29.179999358952 47.03403937629
29.199999358505 51.3118583250559
29.219999358058 63.6071254684253
29.2399993576109 77.5894474632003
29.2599993571639 83.0353444745844
29.2799993567169 93.3598132584191
29.2999993562698 104.049914039053
29.3199993558228 105.683507133201
29.3399993553758 103.997837184189
29.3599993549287 99.0003097879081
29.3799993544817 94.8898026489569
29.3999993540347 83.2515425983099
29.4199993535876 65.8530947090585
29.4399993531406 59.2025320990209
29.4599993526936 48.3387974341442
29.4799993522465 33.0790791480954
29.4999993517995 28.5809931824489
29.5199993513525 23.2193878531794
29.5399993509054 15.5405622500203
29.5599993504584 13.6601119824305
29.5799993500113 12.1869114039995
29.5999993495643 10.1757962496924
29.6199993491173 9.73128805887638
29.6399993486702 9.39824083395976
29.6599993482232 8.87106989135333
29.6799993477762 8.71477741266425
29.6999993473291 8.58963419106379
29.7199993468821 8.40159535783797
29.7399993464351 8.3323394577348
29.759999345988 8.31680867406478
29.779999345541 8.19681531042999
29.799999345094 8.13949910059177
29.8199993446469 8.09846890018822
29.8399993441999 8.09404585345106
29.8599993437529 8.03757425929641
29.8799993433058 8.04076159007465
29.8999993428588 7.96095179819004
29.9199993424118 7.96611833281854
29.9399993419647 7.90089624771803
29.9599993415177 7.83540824763367
29.9799993410707 7.86781341647539
29.9999993406236 7.82768896596436
30.0199993401766 7.71371165359729
30.0399993397295 7.68256103099654
30.0599993392825 7.7023921055668
30.0799993388355 7.7453763312107
30.0999993383884 7.6794842460172
30.1199993379414 7.63327002527973
30.1399993374944 7.50368935433356
30.1599993370473 7.54999686103884
30.1799993366003 7.66598722358193
30.1999993361533 7.64844081264015
30.2199993357062 7.59081730074076
30.2399993352592 7.49561052466645
30.2599993348122 7.50573258535597
30.2799993343651 7.46640752549364
30.2999993339181 7.41718373869301
30.3199993334711 7.49628725386498
30.339999333024 7.55536949640075
30.359999332577 7.6318728964707
30.37999933213 7.52864896555216
30.3999993316829 7.53601240781974
30.4199993312359 7.55284767131406
30.4399993307889 7.59791034368173
30.4599993303418 7.59301121619893
30.4799993298948 7.56848224126692
30.4999993294477 7.526489123052
30.5199993290007 7.48758755863864
30.5399993285537 7.45938029382132
30.5599993281066 7.46480636777415
30.5799993276596 7.4757039596554
30.5999993272126 7.43723906107045
30.6199993267655 7.40590290640924
30.6399993263185 7.32875359573537
30.6599993258715 7.32883012543714
30.6799993254244 7.22372168501951
30.6999993249774 7.24389638858806
30.7199993245304 7.22049869456274
30.7399993240833 7.28177705448021
30.7599993236363 7.22773840656451
30.7799993231893 7.25053265021706
30.7999993227422 7.27814701724824
30.8199993222952 7.3487056566984
30.8399993218482 7.25568255035419
30.8599993214011 7.14175110049915
30.8799993209541 7.06611139883668
30.8999993205071 7.12406483614362
30.91999932006 7.16060181624221
30.939999319613 7.15868312244792
30.9599993191659 7.19313343451864
30.9799993187189 7.21501986826988
30.9999993182719 7.19718870433582
31.0199993178248 7.16919346878603
31.0399993173778 7.19248094853404
31.0599993169308 7.17370124779028
31.0799993164837 7.10215059942335
31.0999993160367 7.11664404623051
31.1199993155897 7.13689871742554
31.1399993151426 7.21075582591616
31.1599993146956 7.1325070227542
31.1799993142486 7.15358117911429
31.1999993138015 7.09589157223015
31.2199993133545 7.18724925564127
31.2399993129075 7.20852400082499
31.2599993124604 7.20797006058524
31.2799993120134 7.18650725082332
31.2999993115664 7.17339775103955
31.3199993111193 7.15961795646348
31.3399993106723 7.07610546481324
31.3599993102252 7.09276527021976
31.3799993097782 7.09311696347307
31.3999993093312 7.1100747855884
31.4199993088841 7.03377385448428
31.4399993084371 7.01503330487892
31.4599993079901 6.98671556584702
31.479999307543 6.95983632815315
31.499999307096 6.97138352797858
31.519999306649 6.98949972459715
31.5399993062019 7.00289185077235
31.5599993057549 7.04042193679145
31.5799993053079 7.09939818062626
31.5999993048608 7.10312252384668
31.6199993044138 7.08138368168702
31.6399993039668 7.04252542246474
31.6599993035197 7.08513658927849
31.6799993030727 7.08728018287292
31.6999993026257 7.15511251017736
31.7199993021786 7.12465968585648
31.7399993017316 7.0736389339982
31.7599993012846 6.96068176641681
31.7799993008375 6.98914377752628
31.7999993003905 7.00136148204269
31.8199992999434 7.04412624482068
31.8399992994964 7.01026254581065
31.8599992990494 6.99857404500848
31.8799992986023 7.02787339209688
31.8999992981553 7.07391800588597
31.9199992977083 7.09591531979732
31.9399992972612 7.06477339894937
31.9599992968142 6.99368868143922
31.9799992963672 6.9901491209167
31.9999992959201 6.99636697818002
32.0199992954731 7.04270020022025
32.0399992950261 7.06572364846951
32.059999294579 7.08239878465398
32.079999294132 7.11981954101736
32.099999293685 7.16770349616848
32.1199992932379 7.14562783641232
32.1399992927909 7.09698818734355
32.1599992923439 7.18622936496313
32.1799992918968 7.3648834625
32.1999992914498 7.46020421208681
32.2199992910028 7.41890129289004
32.2399992905557 7.37775944867193
32.2599992901087 7.32294129494928
32.2799992896616 7.3148898981666
32.2999992892146 7.27212262624251
32.3199992887676 7.25406750400004
32.3399992883205 7.27451328482602
32.3599992878735 7.25283918655913
32.3799992874265 7.29643013780802
32.3999992869794 7.24413276173923
32.4199992865324 7.20311522683144
32.4399992860854 7.19701877479794
32.4599992856383 7.17011007453682
32.4799992851913 7.19103993944035
32.4999992847443 7.08685598440965
32.5199992842972 7.04660261051817
32.5399992838502 7.05943034188948
32.5599992834032 7.13466644532663
32.5799992829561 7.25943589764083
32.5999992825091 7.49045200249519
32.6199992820621 7.76552580079517
32.639999281615 7.97985802966228
32.659999281168 8.15528407195063
32.6799992807209 8.35315681932688
32.6999992802739 8.73546068608034
32.7199992798269 9.19231632182772
32.7399992793798 9.73175047763406
32.7599992789328 10.0969066095742
32.7799992784858 10.4289533826324
32.7999992780387 10.711469384107
32.8199992775917 10.9833476139063
32.8399992771447 11.2075004556284
32.8599992766976 11.3230265736303
32.8799992762506 11.2005951044944
32.8999992758036 10.9298553700143
32.9199992753565 10.5321080818102
32.9399992749095 10.0722302966771
32.9599992744625 9.51119771269296
32.9799992740154 8.95545297177862
32.9999992735684 8.39005961551175
33.0199992731214 7.92430896660426
33.0399992726743 7.50889531416275
33.0599992722273 7.19560729592927
33.0799992717803 7.02232734400686
33.0999992713332 6.91480058237712
33.1199992708862 6.82585238763129
33.1399992704391 6.7290766170567
33.1599992699921 6.69581886796527
33.1799992695451 6.75506513852695
33.199999269098 6.77901439207882
33.219999268651 6.79767044027059
33.239999268204 6.64061687755494
33.2599992677569 6.58463921766875
33.2799992673099 6.50548918669036
33.2999992668629 6.48216112660198
33.3199992664158 6.47474010121214
33.3399992659688 6.48118055896325
33.3599992655218 6.52610520386587
33.3799992650747 6.51577638029362
33.3999992646277 6.4907045559661
33.4199992641807 6.48717731683165
33.4399992637336 6.47492423760493
33.4599992632866 6.55646162702881
33.4799992628396 6.65032342868225
33.4999992623925 6.73017526909832
33.5199992619455 6.78675318109355
33.5399992614985 6.77026837132701
33.5599992610514 6.73952776860295
33.5799992606044 6.68177351079678
33.5999992601573 6.67567641246338
33.6199992597103 6.67212091231167
33.6399992592633 6.62584997370462
33.6599992588162 6.64022292601048
33.6799992583692 6.65955379746729
33.6999992579222 6.68320914578056
33.7199992574751 6.67833731866563
33.7399992570281 6.66501489282104
33.7599992565811 6.63181856205895
33.779999256134 6.58098762670168
33.799999255687 6.49627139410019
33.81999925524 6.48223884791413
33.8399992547929 6.48428664058814
33.8599992543459 6.55146612265333
33.8799992538989 6.48329632557089
33.8999992534518 6.38906599982842
33.9199992530048 6.33964313284793
33.9399992525578 6.31812619548599
33.9599992521107 6.36096780262105
33.9799992516637 6.42498129006421
33.9999992512167 6.46629102409229
34.0199992507696 6.39016336497547
34.0399992503226 6.30597953967743
34.0599992498755 6.26445943995244
34.0799992494285 6.30946369394067
34.0999992489815 6.29894718201246
34.1199992485344 6.36156583699287
34.1399992480874 6.39452083383431
34.1599992476404 6.4263505737975
34.1799992471933 6.45424750281335
34.1999992467463 6.49543541827367
34.2199992462993 6.49121368508797
34.2399992458522 6.42139626288647
34.2599992454052 6.40506396962289
34.2799992449582 6.40073562532762
34.2999992445111 6.38187691207224
34.3199992440641 6.3129943603932
34.3399992436171 6.29810486915267
34.35999924317 6.2891802063017
34.379999242723 6.25879026720319
34.399999242276 6.18318391886298
34.4199992418289 6.15409892648234
34.4399992413819 6.26041135388718
34.4599992409348 6.36014730115363
34.4799992404878 6.36827583456672
34.4999992400408 6.3179686349332
34.5199992395937 6.27045783313151
34.5399992391467 6.28273530802913
34.5599992386997 6.24216855841464
34.5799992382526 6.24475972267408
34.5999992378056 6.1703568853892
34.6199992373586 6.15504238049312
34.6399992369115 6.1237740497251
34.6599992364645 6.1990998936707
34.6799992360175 6.26270476389896
34.6999992355704 6.32263034462679
34.7199992351234 6.36229394850359
34.7399992346764 6.35129926205559
34.7599992342293 6.30734786687952
34.7799992337823 6.3083279891717
34.7999992333353 6.25761869180568
34.8199992328882 6.22733741984405
34.8399992324412 6.12092366788355
34.8599992319942 6.13094632951139
34.8799992315471 6.1669299689234
34.8999992311001 6.22129035162852
34.919999230653 6.20368296542112
34.939999230206 6.18492886003827
34.959999229759 6.19626575125106
34.9799992293119 6.15880452402437
34.9999992288649 6.07966193887485
35.0199992284179 6.05435235209639
35.0399992279708 6.13613361622364
35.0599992275238 6.23160054902589
35.0799992270768 6.23846751161426
35.0999992266297 6.19377051006376
35.1199992261827 6.15244849000003
35.1399992257357 6.13343058766239
35.1599992252886 6.12286063027474
35.1799992248416 6.11982735872634
35.1999992243946 6.2186293276329
35.2199992239475 6.25953666158873
35.2399992235005 6.23391657902898
35.2599992230535 6.18720379437368
35.2799992226064 6.1777340114491
35.2999992221594 6.18091246030645
35.3199992217124 6.18726527479875
35.3399992212653 6.13327092964776
35.3599992208183 6.0655848823378
35.3799992203712 5.89055635478497
35.3999992199242 5.89617211061705
35.4199992194772 5.95175571652574
35.4399992190301 6.00755959818517
35.4599992185831 6.05318002414127
35.4799992181361 6.06983017955067
35.499999217689 6.10438432023533
35.519999217242 6.07270801934979
35.539999216795 5.98080171536449
35.5599992163479 5.93933490510718
35.5799992159009 5.94582383932464
35.5999992154539 5.98577695988946
35.6199992150068 5.95458301319265
35.6399992145598 5.92387195464607
35.6599992141128 5.937981594482
35.6799992136657 5.97331968451304
35.6999992132187 5.96013635017079
35.7199992127717 5.91115299350316
35.7399992123246 5.92218148056772
35.7599992118776 6.0167706670913
35.7799992114306 6.12938569496597
35.7999992109835 6.16555836351072
35.8199992105365 6.15513920356686
35.8399992100894 6.12327010853292
35.8599992096424 6.15597311399768
35.8799992091954 6.20074750722481
35.8999992087483 6.23825344339624
35.9199992083013 6.21237846685279
35.9399992078543 6.23202713199461
35.9599992074072 6.29263718856217
35.9799992069602 6.38507836991967
35.9999992065132 6.39477865458396
36.0199992060661 6.31947048048733
36.0399992056191 6.22540000696276
36.0599992051721 6.08290246169042
36.079999204725 5.9985090746787
36.099999204278 5.98862075691922
36.119999203831 6.00392491691542
36.1399992033839 5.98898683872494
36.1599992029369 5.92406152106473
36.1799992024899 5.81373815000774
36.1999992020428 5.79421292765972
36.2199992015958 5.85854689156892
36.2399992011487 5.91641446172732
36.2599992007017 5.8767837652117
36.2799992002547 5.8317643505871
36.2999991998076 5.84545232708967
36.3199991993606 5.89667650579399
36.3399991989136 5.86594808869704
36.3599991984665 5.82758753241017
36.3799991980195 5.76766562118209
36.3999991975725 5.74843921953811
36.4199991971254 5.70942353029886
36.4399991966784 5.75610540168583
36.4599991962314 5.80864046581007
36.4799991957843 5.82009005410005
36.4999991953373 5.78476642253787
36.5199991948903 5.75991367449819
36.5399991944432 5.77816933610021
36.5599991939962 5.78797886597308
36.5799991935492 5.74475999972317
36.5999991931021 5.71137547924248
36.6199991926551 5.69647827658481
36.6399991922081 5.72558849284019
36.659999191761 5.75206208120624
36.679999191314 5.6958941573992
36.6999991908669 5.72697028472855
36.7199991904199 5.76513308281995
36.7399991899729 5.79818642661554
36.7599991895258 5.8737251989957
36.7799991890788 5.82922082367431
36.7999991886318 5.82603098693371
36.8199991881847 5.74984178709118
36.8399991877377 5.75169484722857
36.8599991872907 5.78240331236998
36.8799991868436 5.70790550591367
36.8999991863966 5.77231128485078
36.9199991859496 5.74994070675686
36.9399991855025 5.80077741508213
36.9599991850555 5.8521626875927
36.9799991846085 5.8923215090076
36.9999991841614 5.83939144723908
37.0199991837144 5.64647870093387
37.0399991832674 5.58403417355105
37.0599991828203 5.60703401414773
37.0799991823733 5.67440205934416
37.0999991819263 5.61714482063264
37.1199991814792 5.58092238583758
37.1399991810322 5.54355118036303
37.1599991805851 5.53004738348591
37.1799991801381 5.56062279107914
37.1999991796911 5.5822938844435
37.219999179244 5.63858713785241
37.239999178797 5.59886597531076
37.25999917835 5.61454870087454
37.2799991779029 5.63139116215358
37.2999991774559 5.62067779242433
37.3199991770089 5.61406719575922
37.3399991765618 5.5959464058907
37.3599991761148 5.57528406641284
37.3799991756678 5.5060239909635
37.3999991752207 5.49005107669117
37.4199991747737 5.540640782537
37.4399991743267 5.56246786238816
37.4599991738796 5.57543460644043
37.4799991734326 5.59561534781515
37.4999991729856 5.66829887843297
37.5199991725385 5.69097824605922
37.5399991720915 5.73688983487395
37.5599991716444 5.68801838995021
37.5799991711974 5.550618837922
37.5999991707504 5.42402720889497
37.6199991703033 5.3297556050003
37.6399991698563 5.3450201374596
37.6599991694093 5.36205390919353
37.6799991689622 5.39951060046008
37.6999991685152 5.42396068788342
37.7199991680682 5.4278886726831
37.7399991676211 5.42109325176187
37.7599991671741 5.43871241830408
37.7799991667271 5.38172191603998
37.79999916628 5.24149258942542
37.819999165833 5.2116181143738
37.839999165386 5.33153927352562
37.8599991649389 5.38959537029983
37.8799991644919 5.37093848539642
37.8999991640449 5.28395874073323
37.9199991635978 5.33768373652023
37.9399991631508 5.37736850621081
37.9599991627038 5.40681904721788
37.9799991622567 5.46116481523438
37.9999991618097 5.45883154448363
38.0199991613626 5.38398231695719
38.0399991609156 5.27205154524365
38.0599991604686 5.25963410496391
38.0799991600215 5.35522461037367
38.0999991595745 5.40825307479328
38.1199991591275 5.39445202839527
38.1399991586804 5.36030698858979
38.1599991582334 5.34220427904085
38.1799991577864 5.33354799905457
38.1999991573393 5.36618258900881
38.2199991568923 5.42976009815033
38.2399991564453 5.40248377606941
38.2599991559982 5.35749157436097
38.2799991555512 5.37791282037789
38.2999991551042 5.39137110056412
38.3199991546571 5.42305879412657
38.3399991542101 5.34283338638984
38.3599991537631 5.35399700469297
38.379999153316 5.3680211768013
38.399999152869 5.38936853332785
38.419999152422 5.40238596699596
38.4399991519749 5.40997887465724
38.4599991515279 5.45912721884279
38.4799991510808 5.46936477349445
38.4999991506338 5.48042856308126
38.5199991501868 5.52813649914813
38.5399991497397 5.59665069939193
38.5599991492927 5.60584400144625
38.5799991488457 5.55432328015519
38.5999991483986 5.51957009636273
38.6199991479516 5.57014815280392
38.6399991475046 5.5902034350114
38.6599991470575 5.55567902165268
38.6799991466105 5.47744492070821
38.6999991461635 5.4811916046971
38.7199991457164 5.49587301981747
38.7399991452694 5.56775917665651
38.7599991448224 5.60551699310056
38.7799991443753 5.61969059027451
38.7999991439283 5.50806590478938
38.8199991434813 5.36836533318878
38.8399991430342 5.37671427980754
38.8599991425872 5.44241718412382
38.8799991421402 5.43261307914949
38.8999991416931 5.3212118628621
38.9199991412461 5.28200558497834
38.939999140799 5.32643212412589
38.959999140352 5.28106661865283
38.979999139905 5.19090372293391
38.9999991394579 5.10783211930388
39.0199991390109 5.14054538778514
39.0399991385639 5.17497135695381
39.0599991381168 5.17183123730104
39.0799991376698 5.09315284961797
39.0999991372228 5.00269798724336
39.1199991367757 4.96241121888267
39.1399991363287 4.96454713892862
39.1599991358817 5.03037321291724
39.1799991354346 5.08637136871983
39.1999991349876 5.21098246000587
39.2199991345406 5.23717514349428
39.2399991340935 5.22006105876939
39.2599991336465 5.16324715096302
39.2799991331995 5.12866942634686
39.2999991327524 5.1035768043071
39.3199991323054 5.10888535678057
39.3399991318583 5.11637763296118
39.3599991314113 5.13661419412889
39.3799991309643 5.13894486862145
39.3999991305172 5.16770547762887
39.4199991300702 5.16289522796973
39.4399991296232 5.0682436533042
39.4599991291761 5.03088546422825
39.4799991287291 5.02060072117256
39.4999991282821 5.13164618493294
39.519999127835 5.14867667371256
39.539999127388 5.17961898028402
39.559999126941 5.10902232786311
39.5799991264939 5.09294499725443
39.5999991260469 5.0932452813509
39.6199991255999 5.13446420093499
39.6399991251528 5.15382802747724
39.6599991247058 5.12717264410357
39.6799991242588 5.10924542994465
39.6999991238117 5.14678230277098
39.7199991233647 5.19237897611095
39.7399991229177 5.19429805420403
39.7599991224706 5.19342431477825
39.7799991220236 5.1869640687272
39.7999991215765 5.23110545602481
39.8199991211295 5.21034613474525
39.8399991206825 5.25375780766987
39.8599991202354 5.27368545794228
39.8799991197884 5.19140579177913
39.8999991193414 5.14998317248647
39.9199991188943 5.11114026878269
39.9399991184473 5.12746846945641
39.9599991180003 5.10677312550165
39.9799991175532 5.08391538947281
39.9999991171062 5.10264747213848
40.0199991166592 5.07593507462596
40.0399991162121 5.05748113369786
40.0599991157651 4.96898301822582
40.0799991153181 4.92818176800392
40.099999114871 4.89188629034115
40.119999114424 4.99251328808374
40.139999113977 5.08584146604252
40.1599991135299 5.21701187517499
40.1799991130829 5.24280723717716
40.1999991126359 5.30158762598988
40.2199991121888 5.29947998837322
40.2399991117418 5.32235450393402
40.2599991112947 5.32699076224394
40.2799991108477 5.25325410029613
40.2999991104007 5.28202158909929
40.3199991099536 5.32609049227962
40.3399991095066 5.42669616855978
40.3599991090596 5.40492256498862
40.3799991086125 5.39655886498396
40.3999991081655 5.36918854738032
40.4199991077185 5.35365546157242
40.4399991072714 5.26986848223216
40.4599991068244 5.25555918188005
40.4799991063774 5.29308678046306
40.4999991059303 5.3379612400833
40.5199991054833 5.32613357426169
40.5399991050363 5.31700737973286
40.5599991045892 5.25581321175819
40.5799991041422 5.20671802673358
40.5999991036952 5.13397945448096
40.6199991032481 5.08031765903913
40.6399991028011 5.03828887662385
40.6599991023541 5.03943223997633
40.679999101907 5.11326665090909
40.69999910146 5.19791176049139
40.7199991010129 5.21557417821403
40.7399991005659 5.14345276835513
40.7599991001189 5.11671184513699
40.7799990996718 5.13933919032159
40.7999990992248 5.12805657437397
40.8199990987778 5.08492259670272
40.8399990983307 5.03386532859816
40.8599990978837 5.05008978714362
40.8799990974367 5.09055769995029
40.8999990969896 5.12506814938927
40.9199990965426 5.16095965938534
40.9399990960956 5.19823396143358
40.9599990956485 5.21038750582011
40.9799990952015 5.1397925747842
40.9999990947545 5.10390394848217
41.0199990943074 5.05704406022909
41.0399990938604 5.09686584634791
41.0599990934134 5.07805254789491
41.0799990929663 5.02421909585218
41.0999990925193 4.92868065680224
41.1199990920722 4.9280751019653
41.1399990916252 4.94853822796551
41.1599990911782 5.07402229766988
41.1799990907311 5.12035081484068
41.1999990902841 5.24094798432948
41.2199990898371 5.16308783096492
41.23999908939 5.05158812041954
41.259999088943 4.98458310200518
41.279999088496 5.09038221060648
41.2999990880489 5.1577631555063
41.3199990876019 5.16407239847673
41.3399990871549 5.06707077126021
41.3599990867078 5.1092261809551
41.3799990862608 5.16293712584196
41.3999990858138 5.22977748270012
41.4199990853667 5.126024269966
41.4399990849197 5.01673907441336
41.4599990844727 5.04267088180907
41.4799990840256 5.15579173543842
41.4999990835786 5.24456023580066
41.5199990831316 5.25147507399872
41.5399990826845 5.291789131006
41.5599990822375 5.38367292632626
41.5799990817904 5.49627627549381
41.5999990813434 5.63869488262841
41.6199990808964 5.81910747710202
41.6399990804493 5.80653187788367
41.6599990800023 5.80849151659682
41.6799990795553 5.85946405944132
41.6999990791082 5.97149155575971
41.7199990786612 6.02509310038411
41.7399990782142 6.09085652753317
41.7599990777671 6.09527846956693
41.7799990773201 6.03672978240628
41.7999990768731 5.92650736144376
41.819999076426 5.87227982611596
41.839999075979 5.79521016572949
41.859999075532 5.66696709779476
41.8799990750849 5.48818626778874
41.8999990746379 5.40282089340129
41.9199990741909 5.28956181760374
41.9399990737438 5.19723805571813
41.9599990732968 5.11765723125579
41.9799990728498 5.05619746267475
41.9999990724027 5.06460359590698
42.0199990719557 5.0488352195722
42.0399990715086 5.12869403479301
42.0599990710616 5.17717324348921
42.0799990706146 5.17858796898775
42.0999990701675 5.15267232511367
42.1199990697205 5.12426286859639
42.1399990692735 5.19299101023308
42.1599990688264 5.24607153953719
42.1799990683794 5.27208519002365
42.1999990679324 5.25535048149899
42.2199990674853 5.12872054863816
42.2399990670383 5.10772244108103
42.2599990665913 5.12544512951068
42.2799990661442 5.19348472697225
42.2999990656972 5.18032014443182
42.3199990652502 5.14898802099915
42.3399990648031 5.13449845050166
42.3599990643561 5.11982373303814
42.3799990639091 5.09703079345819
42.399999063462 5.07758039495184
42.419999063015 5.08867574075016
42.4399990625679 5.06217417418078
42.4599990621209 5.09702066717089
42.4799990616739 5.06872459412371
42.4999990612268 5.11553892565999
42.5199990607798 5.10277398262721
42.5399990603328 5.07234848082026
42.5599990598857 5.03182392806028
42.5799990594387 5.04345360471059
42.5999990589917 5.04887696104741
42.6199990585446 5.07707901961532
42.6399990580976 5.05753220070526
42.6599990576506 5.13782677924682
42.6799990572035 5.13159315526883
42.6999990567565 5.08328304524514
42.7199990563095 4.9718943277142
42.7399990558624 4.95793878387356
42.7599990554154 5.0001194146178
42.7799990549684 5.03600877974712
42.7999990545213 5.01407919257129
42.8199990540743 4.98873559342762
42.8399990536273 5.0164847541623
42.8599990531802 5.07302726725986
42.8799990527332 5.12973652830065
42.8999990522861 5.10522298426361
42.9199990518391 5.10129627484801
42.9399990513921 5.10715803462467
42.959999050945 5.0911498300108
42.979999050498 5.03968929048657
42.999999050051 4.9834774947737
43.0199990496039 4.99845194041126
43.0399990491569 4.99304522363575
43.0599990487099 5.01750800413421
43.0799990482628 5.03374317373186
43.0999990478158 5.10390105336618
43.1199990473688 5.12772908599076
43.1399990469217 5.13157617642595
43.1599990464747 5.09659425010201
43.1799990460277 5.03903955798238
43.1999990455806 5.04522181694033
43.2199990451336 5.03955373191401
43.2399990446866 5.1073031505262
43.2599990442395 5.1239119323376
43.2799990437925 5.14445029975271
43.2999990433455 5.08170893697779
43.3199990428984 5.05379229406035
43.3399990424514 4.99686282303498
43.3599990420043 5.01562801739005
43.3799990415573 4.99796379723661
43.3999990411103 5.05001739883329
43.4199990406632 5.04394503457096
43.4399990402162 5.05105595024669
43.4599990397692 5.05898841304348
43.4799990393221 5.15841551876419
43.4999990388751 5.22129416684182
43.5199990384281 5.08430799679876
43.539999037981 4.92372240797797
43.559999037534 4.87185777466196
43.579999037087 4.94808525621499
43.5999990366399 5.01160588006175
43.6199990361929 5.08891289059355
43.6399990357459 5.12911107121225
43.6599990352988 5.10944164503538
43.6799990348518 5.11362206706418
43.6999990344048 5.06372976780996
43.7199990339577 5.04691118737742
43.7399990335107 5.04716730056584
43.7599990330637 5.08500390768374
43.7799990326166 5.08111022101494
43.7999990321696 5.01209196828952
43.8199990317225 5.02330646331721
43.8399990312755 5.06261337441241
43.8599990308285 5.11333898943333
43.8799990303814 5.14611795108947
43.8999990299344 5.17385879711587
43.9199990294874 5.19632363988083
43.9399990290403 5.16010692833055
43.9599990285933 5.19637416012803
43.9799990281463 5.21509762727484
43.9999990276992 5.20158210612021
44.0199990272522 5.17361647450542
44.0399990268052 5.22258334909337
44.0599990263581 5.33250798292779
44.0799990259111 5.45263298938802
44.0999990254641 5.59102759293027
44.119999025017 5.61606558780339
44.13999902457 5.59888588868119
44.159999024123 5.72121874267522
44.1799990236759 5.87243043174364
44.1999990232289 5.9602936419532
44.2199990227818 6.09584509422639
44.2399990223348 6.25904198157121
44.2599990218878 6.39096489616514
44.2799990214407 6.70949624440973
44.2999990209937 6.86647227657768
44.3199990205467 6.96957022132591
44.3399990200996 7.13790932321651
44.3599990196526 7.17346281629098
44.3799990192056 7.13370991904367
44.3999990187585 7.08468653497134
44.4199990183115 6.98434740261782
44.4399990178645 6.89022242059496
44.4599990174174 6.76049786610611
44.4799990169704 6.67942803319683
44.4999990165234 6.61337574271799
44.5199990160763 6.43426606811492
44.5399990156293 6.31183972193214
44.5599990151823 6.19032637068051
44.5799990147352 5.69522520791384
44.5999990142882 5.38906454206197
44.6199990138412 5.26065818196663
44.6399990133941 5.27685936646586
44.6599990129471 5.25416029509949
44.6799990125 5.21280807404297
44.699999012053 5.15321170044414
44.719999011606 5.09756314722403
44.7399990111589 5.05919707367171
44.7599990107119 5.01525562979998
44.7799990102649 4.98671323029945
44.7999990098178 4.99447367729463
44.8199990093708 5.01236924768469
44.8399990089238 5.02106283326968
44.8599990084767 4.98834753213991
44.8799990080297 4.97620577380624
44.8999990075827 4.89880794757906
44.9199990071356 4.90145936282097
44.9399990066886 4.90363035541212
44.9599990062416 4.88510442373329
44.9799990057945 4.94670536722301
44.9999990053475 4.96385945837653
45.0199990049005 4.99216970375804
45.0399990044534 4.88043670730045
45.0599990040064 4.8815425846553
45.0799990035594 4.90859171536797
45.0999990031123 4.85283450984383
45.1199990026653 4.78714677353477
45.1399990022182 4.76147055158893
45.1599990017712 4.89166601410629
45.1799990013242 4.94234203232935
45.1999990008771 4.96016841579217
45.2199990004301 4.95948109580364
45.2399989999831 4.92423116119459
45.259998999536 4.8751376212382
45.279998999089 4.80156200327597
45.299998998642 4.82818281925753
45.3199989981949 4.85025328704544
45.3399989977479 4.85011446222105
45.3599989973009 4.86492588098792
45.3799989968538 4.86199715561754
45.3999989964068 4.83326937549453
45.4199989959598 4.76820825154781
45.4399989955127 4.78607349602729
45.4599989950657 4.82119854889056
45.4799989946187 4.8367577852479
45.4999989941716 4.78438570955891
45.5199989937246 4.75441244798526
45.5399989932776 4.71370564820946
45.5599989928305 4.69116547470922
45.5799989923835 4.68986721797414
45.5999989919364 4.72005388453155
45.6199989914894 4.71326150846011
45.6399989910424 4.66742269131554
45.6599989905953 4.68603684746118
45.6799989901483 4.70358202916356
45.6999989897013 4.74468797555066
45.7199989892542 4.75795299548365
45.7399989888072 4.81147056455261
45.7599989883602 4.83640783018982
45.7799989879131 4.72472924374669
45.7999989874661 4.62834189864412
45.8199989870191 4.62567025402303
45.839998986572 4.67446715573883
45.859998986125 4.68534639391759
45.879998985678 4.60763947560913
45.8999989852309 4.58269178064841
45.9199989847839 4.61326601065908
45.9399989843369 4.62501370691042
45.9599989838898 4.69354863848042
45.9799989834428 4.56838542567196
45.9999989829957 4.50999985218759
46.0199989825487 4.43423387163953
46.0399989821017 4.52673912830409
46.0599989816546 4.50930861990894
46.0799989812076 4.48740715347433
46.0999989807606 4.46986011705186
46.1199989803135 4.59007282988006
46.1399989798665 4.70078417643548
46.1599989794195 4.67670136206993
46.1799989789724 4.62833453039741
46.1999989785254 4.54607446134643
46.2199989780784 4.5399102283446
46.2399989776313 4.49629614707289
46.2599989771843 4.47961266695267
46.2799989767373 4.47716318382192
46.2999989762902 4.46644246619246
46.3199989758432 4.4917258422985
46.3399989753962 4.50964762921262
46.3599989749491 4.54597341214804
46.3799989745021 4.52761747624914
46.3999989740551 4.53805699036266
46.419998973608 4.49746796881432
46.439998973161 4.47785039262733
46.4599989727139 4.43463500696186
46.4799989722669 4.4825166512626
46.4999989718199 4.53538679779749
46.5199989713728 4.5554683055296
46.5399989709258 4.60937898308188
46.5599989704788 4.58999575084638
46.5799989700317 4.64081957477168
46.5999989695847 4.59712962999333
46.6199989691377 4.58533040741198
46.6399989686906 4.59409681418378
46.6599989682436 4.67105033795919
46.6799989677966 4.74570532711747
46.6999989673495 4.79350231382669
46.7199989669025 4.86206430398803
46.7399989664555 4.94659211971472
46.7599989660084 4.96173897892239
46.7799989655614 4.88797886538284
46.7999989651144 4.73749807852665
46.8199989646673 4.66513849597
46.8399989642203 4.6217314447952
46.8599989637733 4.67715366146975
46.8799989633262 4.72583583195525
46.8999989628792 4.79118330970141
46.9199989624321 4.81509308381948
46.9399989619851 4.72925145356688
46.9599989615381 4.61449042130386
46.979998961091 4.53187480605524
46.999998960644 4.53184277037397
47.019998960197 4.52605217497434
47.0399989597499 4.55957316973537
47.0599989593029 4.55039019440414
47.0799989588559 4.52733377161469
47.0999989584088 4.51616477939195
47.1199989579618 4.53446422421383
47.1399989575148 4.54860205034043
47.1599989570677 4.50636107776397
47.1799989566207 4.52281173237746
47.1999989561737 4.51425975415723
47.2199989557266 4.52031565198487
47.2399989552796 4.47023448370972
47.2599989548326 4.48738366553993
47.2799989543855 4.46773010787755
47.2999989539385 4.41828337538377
47.3199989534914 4.42264031633227
47.3399989530444 4.4791573557261
47.3599989525974 4.59565779132715
47.3799989521503 4.62752450789456
47.3999989517033 4.59243716720773
47.4199989512563 4.47547443597186
47.4399989508092 4.39253337445883
47.4599989503622 4.28772527122158
47.4799989499152 4.38005132735564
47.4999989494681 4.4328031282901
47.5199989490211 4.5498821017443
47.5399989485741 4.5288177614985
47.559998948127 4.50298705435175
47.57999894768 4.47439785043378
47.599998947233 4.45738967579289
47.6199989467859 4.49649280235186
47.6399989463389 4.39351733841854
47.6599989458919 4.32136613719854
47.6799989454448 4.2452321625502
47.6999989449978 4.29369891185562
47.7199989445508 4.34533431076136
47.7399989441037 4.34011263088791
47.7599989436567 4.38610410021368
47.7799989432096 4.37459459006627
47.7999989427626 4.36992817944344
47.8199989423156 4.3645420229382
47.8399989418685 4.4100256618172
47.8599989414215 4.46664480585249
47.8799989409745 4.46094335111032
47.8999989405274 4.3747514214558
47.9199989400804 4.34166134652552
47.9399989396334 4.38303731303806
47.9599989391863 4.45175077618043
47.9799989387393 4.4321073883726
47.9999989382923 4.44491094538959
48.0199989378452 4.40798706591546
48.0399989373982 4.43131912705922
48.0599989369512 4.34591390144445
48.0799989365041 4.33933186992716
48.0999989360571 4.29986004239408
48.1199989356101 4.38011196347338
48.139998935163 4.37687168440605
48.159998934716 4.37094524373889
48.179998934269 4.29746637316177
48.1999989338219 4.28619143971661
48.2199989333749 4.35776493599545
48.2399989329278 4.43136607177307
48.2599989324808 4.43771901822364
48.2799989320338 4.3882885022601
48.2999989315867 4.38326505914302
48.3199989311397 4.36475699557377
48.3399989306927 4.35161489819524
48.3599989302456 4.28724447657957
48.3799989297986 4.32953486518452
48.3999989293516 4.29269690502373
48.4199989289045 4.28075286214298
48.4399989284575 4.24271871209326
48.4599989280105 4.31413549943031
48.4799989275634 4.4140351121522
48.4999989271164 4.43404708324237
48.5199989266694 4.41897187508562
48.5399989262223 4.39255358116014
48.5599989257753 4.37504788470825
48.5799989253283 4.37027188059735
48.5999989248812 4.3472743217813
48.6199989244342 4.35261251219172
48.6399989239872 4.40319891516324
48.6599989235401 4.43038052687447
48.6799989230931 4.49535090333549
48.699998922646 4.49081290447043
48.719998922199 4.48868169945078
48.739998921752 4.45324914497131
48.7599989213049 4.43343450697324
48.7799989208579 4.46881453292697
48.7999989204109 4.46583927834942
48.8199989199638 4.3823618896112
48.8399989195168 4.29466673133526
48.8599989190698 4.20394522195469
48.8799989186227 4.24377286771247
48.8999989181757 4.28852789430028
48.9199989177287 4.37497936002002
48.9399989172816 4.4132775182282
48.9599989168346 4.35150678995855
48.9799989163876 4.2888458797612
48.9999989159405 4.26012353920047
49.0199989154935 4.26921609963355
49.0399989150465 4.31024991924441
49.0599989145994 4.29841588997622
49.0799989141524 4.33591447254023
49.0999989137053 4.40651346414465
49.1199989132583 4.39298280167368
49.1399989128113 4.33491552570894
49.1599989123642 4.24038389795525
49.1799989119172 4.24801652921732
49.1999989114702 4.29035269968423
49.2199989110231 4.33651907211293
49.2399989105761 4.39249386973152
49.2599989101291 4.39688382343261
49.279998909682 4.34167898451199
49.299998909235 4.26927376207186
49.319998908788 4.24653928771221
49.3399989083409 4.29871221477641
49.3599989078939 4.36037024515165
49.3799989074469 4.40883163476285
49.3999989069998 4.44959992792366
49.4199989065528 4.40148812269465
49.4399989061058 4.4090727727926
49.4599989056587 4.35401710992521
49.4799989052117 4.31828567560124
49.4999989047647 4.31010411821277
49.5199989043176 4.38245974813083
49.5399989038706 4.51116424814842
49.5599989034235 4.50675464207628
49.5799989029765 4.36996192903063
49.5999989025295 4.29014942921456
49.6199989020824 4.28198943028121
49.6399989016354 4.33448836198585
49.6599989011884 4.39593717775932
49.6799989007413 4.35769945109431
49.6999989002943 4.38628061132029
49.7199988998473 4.35034562185036
49.7399988994002 4.38080063769041
49.7599988989532 4.38272519055363
49.7799988985062 4.39766548507192
49.7999988980591 4.4302301934078
49.8199988976121 4.40647847716796
49.8399988971651 4.41869318780613
49.859998896718 4.37612546831232
49.879998896271 4.36412093645197
49.899998895824 4.28561032765511
49.9199988953769 4.2539506178593
49.9399988949299 4.23578284207267
49.9599988944829 4.25566335029302
49.9799988940358 4.3410311442569
49.9999988935888 4.40428031626286
50.0199988931417 4.47181831644884
50.0399988926947 4.46008330466246
50.0599988922477 4.40774869880518
50.0799988918006 4.32337924412273
50.0999988913536 4.27881958155665
50.1199988909066 4.29508137155248
50.1399988904595 4.27321957649125
50.1599988900125 4.2813657660276
50.1799988895655 4.32992517670173
50.1999988891184 4.36975289200411
50.2199988886714 4.33755589370916
50.2399988882244 4.27217124483768
50.2599988877773 4.20438510545514
50.2799988873303 4.22140629342489
50.2999988868833 4.216331269383
50.3199988864362 4.2751975366734
50.3399988859892 4.19815834554232
50.3599988855422 4.18802311237236
50.3799988850951 4.13755737335401
50.3999988846481 4.18647382612745
50.4199988842011 4.1957141326095
50.439998883754 4.20175384339142
50.459998883307 4.2229409761572
50.4799988828599 4.26970059234932
50.4999988824129 4.31305966492342
50.5199988819659 4.24779858607736
50.5399988815188 4.20582891642699
50.5599988810718 4.23761164107123
50.5799988806248 4.26877487652601
50.5999988801777 4.23542586566824
50.6199988797307 4.24260809237225
50.6399988792837 4.22224728240289
50.6599988788366 4.2518499998059
50.6799988783896 4.23324921465498
50.6999988779426 4.29132954628427
50.7199988774955 4.33888059933508
50.7399988770485 4.32400210031532
50.7599988766015 4.35079913958817
50.7799988761544 4.3454696148115
50.7999988757074 4.36489703731094
50.8199988752604 4.35445930007289
50.8399988748133 4.40473716420132
50.8599988743663 4.41105462007466
50.8799988739192 4.38232548411768
50.8999988734722 4.2757419890452
50.9199988730252 4.18151919778647
50.9399988725781 4.19098064286393
50.9599988721311 4.18778860541426
50.9799988716841 4.16847065048838
50.999998871237 4.10018357075699
51.01999887079 4.16429666140065
51.039998870343 4.24551768016151
51.0599988698959 4.22270600338612
51.0799988694489 4.17922613101594
51.0999988690019 4.11231949403486
51.1199988685548 4.17197871929514
51.1399988681078 4.15841850198197
51.1599988676608 4.18633766250284
51.1799988672137 4.21049365596446
51.1999988667667 4.22003715461904
51.2199988663197 4.22010160411724
51.2399988658726 4.1742300362321
51.2599988654256 4.17184968494564
51.2799988649786 4.1551372659412
51.2999988645315 4.19578174974661
51.3199988640845 4.20061662174003
51.3399988636374 4.2533156733491
51.3599988631904 4.18522345819603
51.3799988627434 4.18383843028041
51.3999988622963 4.17200639916791
51.4199988618493 4.23141096615542
51.4399988614023 4.32666570291601
51.4599988609552 4.35837098029086
51.4799988605082 4.33423351233479
51.4999988600612 4.29473043921657
51.5199988596141 4.27415665910635
51.5399988591671 4.3076724721743
51.5599988587201 4.34073268923972
51.579998858273 4.36724221758543
51.599998857826 4.39814309745924
51.619998857379 4.39020208581304
51.6399988569319 4.39339341375952
51.6599988564849 4.4814226396454
51.6799988560379 4.42626170322201
51.6999988555908 4.41531568394705
51.7199988551438 4.23117934919429
51.7399988546968 4.25755511211589
51.7599988542497 4.18362851513593
51.7799988538027 4.34289916875878
51.7999988533556 4.33521008714491
51.8199988529086 4.42789749266908
51.8399988524616 4.35925019770715
51.8599988520145 4.31610407210938
51.8799988515675 4.30897372618432
51.8999988511205 4.32891660678521
51.9199988506734 4.37261901005419
51.9399988502264 4.35634263170374
51.9599988497794 4.36347975765303
51.9799988493323 4.38545793747453
51.9999988488853 4.35155347782529
52.0199988484383 4.34662652350183
52.0399988479912 4.26831832389991
52.0599988475442 4.28235083357312
52.0799988470972 4.25172816814773
52.0999988466501 4.25323149516844
52.1199988462031 4.21380649012719
52.1399988457561 4.16990565287088
52.159998845309 4.15493032062605
52.179998844862 4.15488157561643
52.1999988444149 4.13181499675155
52.2199988439679 4.14548222192135
52.2399988435209 4.15769108251428
52.2599988430738 4.19777643819028
52.2799988426268 4.17617080343209
52.2999988421798 4.21540478757244
52.3199988417327 4.21126323151653
52.3399988412857 4.24972022785786
52.3599988408387 4.2276505585099
52.3799988403916 4.23622179745456
52.3999988399446 4.22309105973274
52.4199988394976 4.1848466539331
52.4399988390505 4.17652779654373
52.4599988386035 4.17061407294359
52.4799988381565 4.17312521136738
52.4999988377094 4.12560229106976
52.5199988372624 4.15506490044387
52.5399988368154 4.17873042021437
52.5599988363683 4.20887605828166
52.5799988359213 4.23159445941457
52.5999988354743 4.30771455269131
52.6199988350272 4.34419353790417
52.6399988345802 4.31155209873884
52.6599988341331 4.25994585363425
52.6799988336861 4.24058806675676
52.6999988332391 4.27207797922677
52.719998832792 4.22449130091469
52.739998832345 4.16315599426459
52.759998831898 4.13577401295881
52.7799988314509 4.12486434934981
52.7999988310039 4.06833469735912
52.8199988305569 4.05769355167034
52.8399988301098 4.07255757534771
52.8599988296628 4.24838246125049
52.8799988292158 4.3521230469408
52.8999988287687 4.4291351993842
52.9199988283217 4.34740290274501
52.9399988278747 4.22052092932969
52.9599988274276 4.15984035043388
52.9799988269806 4.22900558870719
52.9999988265336 4.34451161979068
53.0199988260865 4.34301019882287
53.0399988256395 4.2926559405594
53.0599988251925 4.26798183180725
53.0799988247454 4.28311531081086
53.0999988242984 4.29597208679082
53.1199988238513 4.24008160108688
53.1399988234043 4.2602750697447
53.1599988229573 4.25659742385996
53.1799988225102 4.26130648400634
53.1999988220632 4.21065345191593
53.2199988216162 4.19948383425993
53.2399988211691 4.14366930018417
53.2599988207221 4.12948176688354
53.2799988202751 4.14982091939369
53.299998819828 4.2415610673248
53.319998819381 4.27985147613302
53.339998818934 4.26674030146858
53.3599988184869 4.22295119837987
53.3799988180399 4.1987529834656
53.3999988175929 4.16363432627458
53.4199988171458 4.13881648940512
53.4399988166988 4.12861340599603
53.4599988162518 4.12195274991344
53.4799988158047 4.15817022606929
53.4999988153577 4.16215097072761
53.5199988149107 4.22984650630604
53.5399988144636 4.26596644069433
53.5599988140166 4.28283565681772
53.5799988135695 4.2229806770138
53.5999988131225 4.20920687345226
53.6199988126755 4.29002490075054
53.6399988122284 4.30496871149757
53.6599988117814 4.29014914816078
53.6799988113344 4.29377514396668
53.6999988108873 4.34394251978307
53.7199988104403 4.38738577773768
53.7399988099933 4.35987544955086
53.7599988095462 4.35520672364596
53.7799988090992 4.30914205901285
53.7999988086522 4.22697822212639
53.8199988082051 4.23660230291022
53.8399988077581 4.25818897787077
53.8599988073111 4.33573996142137
53.879998806864 4.32393487154501
53.899998806417 4.30371827582601
53.91999880597 4.26724348140941
53.9399988055229 4.32776045890145
53.9599988050759 4.3560492430716
53.9799988046288 4.39743435986208
53.9999988041818 4.35159484427511
54.0199988037348 4.34271120741649
54.0399988032877 4.29598125813916
54.0599988028407 4.2891603871718
54.0799988023937 4.26274706216929
54.0999988019466 4.22024919871679
54.1199988014996 4.28883500458528
54.1399988010526 4.39187288103646
54.1599988006055 4.41806769595628
54.1799988001585 4.34827056844135
54.1999987997115 4.23167020724209
54.2199987992644 4.26890663823284
54.2399987988174 4.29905423300662
54.2599987983704 4.33875593491232
54.2799987979233 4.33566931117051
54.2999987974763 4.34467421646501
54.3199987970293 4.3311378149908
54.3399987965822 4.27710798240846
54.3599987961352 4.26825099604585
54.3799987956882 4.35858709608699
54.3999987952411 4.45742539115993
54.4199987947941 4.43376373936286
54.439998794347 4.35227616433035
54.4599987939 4.30770856317851
54.479998793453 4.30289110614002
54.4999987930059 4.30545203962422
54.5199987925589 4.3496123239749
54.5399987921119 4.40852928083163
54.5599987916648 4.38708471813542
54.5799987912178 4.3160126512415
54.5999987907708 4.27995367105132
54.6199987903237 4.3062769752866
54.6399987898767 4.34355695002305
54.6599987894297 4.37986611188006
54.6799987889826 4.43647438148401
54.6999987885356 4.48015123648333
54.7199987880886 4.452917747279
54.7399987876415 4.42252102267562
54.7599987871945 4.37282381866537
54.7799987867475 4.33545574217285
54.7999987863004 4.27825778130262
54.8199987858534 4.28425292274732
54.8399987854064 4.32685215886514
54.8599987849593 4.32781063231976
54.8799987845123 4.25928174829739
54.8999987840652 4.21857120724737
54.9199987836182 4.27853366706817
54.9399987831712 4.38063540308615
54.9599987827241 4.46390573344765
54.9799987822771 4.42210873601346
54.9999987818301 4.35143290377167
55.019998781383 4.24534334854627
55.039998780936 4.2227770668163
55.059998780489 4.24369084979188
55.0799987800419 4.25915973052891
55.0999987795949 4.23852259323085
55.1199987791479 4.18469008100755
55.1399987787008 4.15420281640125
55.1599987782538 4.13844008602483
55.1799987778068 4.20525307557303
55.1999987773597 4.27627512210309
55.2199987769127 4.30294870407626
55.2399987764657 4.21537982165136
55.2599987760186 4.173450985654
55.2799987755716 4.14601260490361
55.2999987751246 4.20768304044269
55.3199987746775 4.23993054933616
55.3399987742305 4.23710866414875
55.3599987737834 4.21845633975583
55.3799987733364 4.23276831134874
55.3999987728894 4.2593031445831
55.4199987724423 4.34562223526331
55.4399987719953 4.35526411590519
55.4599987715483 4.36551519460907
55.4799987711012 4.30794379681894
55.4999987706542 4.3131437217786
55.5199987702072 4.52690068665638
55.5399987697601 4.5977759532476
55.5599987693131 4.65222618460803
55.5799987688661 4.54501963154141
55.599998768419 4.58041801846543
55.619998767972 4.54823526449314
55.639998767525 4.51648984972421
55.6599987670779 4.46363810835573
55.6799987666309 4.49730926737407
55.6999987661839 4.45050486502556
55.7199987657368 4.46405890679981
55.7399987652898 4.37464860962462
55.7599987648427 4.36457049320582
55.7799987643957 4.24359303935367
55.7999987639487 4.34998086717195
55.8199987635016 4.39958264127134
55.8399987630546 4.48326998667082
55.8599987626076 4.51602058607105
55.8799987621605 4.42396115904921
55.8999987617135 4.40910640378404
55.9199987612665 4.3251391042385
55.9399987608194 4.37567391612521
55.9599987603724 4.35291522185806
55.9799987599254 4.46861253755271
55.9999987594783 4.57017666297862
56.0199987590313 4.58637620620694
56.0399987585843 4.57659505351439
56.0599987581372 4.54375772641356
56.0799987576902 4.57671150782085
56.0999987572432 4.44401835784613
56.1199987567961 4.3298923661326
56.1399987563491 4.28612236755909
56.1599987559021 4.29227885629341
56.179998755455 4.42424574273787
56.199998755008 4.46586162176103
56.2199987545609 4.46627351597319
56.2399987541139 4.31199476066585
56.2599987536669 4.28596847882671
56.2799987532198 4.41537896110249
56.2999987527728 4.59553241751796
56.3199987523258 4.71131763702394
56.3399987518787 4.60552426789082
56.3599987514317 4.38211386551731
56.3799987509847 4.19510444149573
56.3999987505376 4.28753241336487
56.4199987500906 4.56430700449118
56.4399987496436 4.71388336525091
56.4599987491965 4.69087036649252
56.4799987487495 4.69798616994518
56.4999987483025 4.80499152488758
56.5199987478554 4.98838439158754
56.5399987474084 4.79481315989331
56.5599987469614 4.55100287907077
56.5799987465143 4.46532365463192
56.5999987460673 4.41957130163847
56.6199987456203 4.623169803689
56.6399987451732 4.61955395723432
56.6599987447262 4.8167382582957
56.6799987442791 4.64463819169311
56.6999987438321 4.80722226613477
56.7199987433851 5.14768854250894
56.739998742938 5.40843613695576
56.759998742491 5.57091429949354
56.779998742044 5.31929340604238
56.7999987415969 5.3844928641004
56.8199987411499 5.14696979313186
56.8399987407029 5.31746644795447
56.8599987402558 5.39790797373907
56.8799987398088 4.53311357292768
56.8999987393618 3.25608670601421
