'Id: "" Comment: "Integrate frame 2018_8-7 FAGACs_1p25PEAI001.gfrmwith cursor Full Frame Cursor #3" Operator: "MAF user" Anode: "Cu" Scantype: "TwoTheta" TimePerStep: "90" 
10.7399997711182 6.3420101089925
10.7599997706711 6.35738853858771
10.7799997702241 6.39509520335693
10.7999997697771 6.44804638715575
10.81999976933 6.0155392798522
10.839999768883 5.93691107759251
10.859999768436 5.70025230809813
10.8799997679889 5.47119180883225
10.8999997675419 5.16357609658771
10.9199997670949 5.1596340052147
10.9399997666478 5.08275337304876
10.9599997662008 5.02055882970694
10.9799997657537 4.90782953482966
10.9999997653067 4.97781738574091
11.0199997648597 5.03510958934985
11.0399997644126 5.14457164196704
11.0599997639656 5.07360051376772
11.0799997635186 5.06031981535344
11.0999997630715 4.98448737136428
11.1199997626245 4.9289749629067
11.1399997621775 4.90443674113657
11.1599997617304 4.72978235186606
11.1799997612834 4.64650815328852
11.1999997608364 4.54340629518227
11.2199997603893 4.70033285490734
11.2399997599423 4.86684851054699
11.2599997594953 4.92097635479938
11.2799997590482 4.92915980105653
11.2999997586012 4.88257651179102
11.3199997581542 4.86053206841637
11.3399997577071 4.75585703537074
11.3599997572601 4.58031762708326
11.379999756813 4.50784080795505
11.399999756366 4.59994125509061
11.419999755919 4.69723353503192
11.4399997554719 4.74711451251239
11.4599997550249 4.68915769403811
11.4799997545779 4.70607845536037
11.4999997541308 4.72944670984886
11.5199997536838 4.72818931025673
11.5399997532368 4.78591475097406
11.5599997527897 4.77101431761285
11.5799997523427 4.62862848302723
11.5999997518957 4.55117096912514
11.6199997514486 4.60726089705827
11.6399997510016 4.76614930551592
11.6599997505546 4.83848287875745
11.6799997501075 4.69499515384678
11.6999997496605 4.63470339102112
11.7199997492135 4.56861705518743
11.7399997487664 4.73632023342025
11.7599997483194 4.87555290945844
11.7799997478724 5.01020665034679
11.7999997474253 5.06550354970553
11.8199997469783 4.94588358255007
11.8399997465312 4.86046965324797
11.8599997460842 4.76591158048608
11.8799997456372 4.82755003723084
11.8999997451901 4.87011626914635
11.9199997447431 4.93083301689938
11.9399997442961 4.86663370714712
11.959999743849 4.85504902542451
11.979999743402 4.86766459378441
11.999999742955 4.8606109384504
12.0199997425079 4.77416322821747
12.0399997420609 4.77065513121596
12.0599997416139 4.8185985393539
12.0799997411668 4.86732271236496
12.0999997407198 4.84990566055256
12.1199997402728 4.8241058175316
12.1399997398257 4.78121703985845
12.1599997393787 4.76377875007033
12.1799997389317 4.8390234569939
12.1999997384846 4.95568600009518
12.2199997380376 4.94232421258348
12.2399997375906 4.90447018630643
12.2599997371435 4.9174581626282
12.2799997366965 4.96426526741764
12.2999997362494 4.86122245409608
12.3199997358024 4.75566943393149
12.3399997353554 4.69612115346031
12.3599997349083 4.7518041471756
12.3799997344613 4.80861960043205
12.3999997340143 4.85645633999129
12.4199997335672 4.87998235102134
12.4399997331202 4.85477398714388
12.4599997326732 4.89883599901006
12.4799997322261 4.95906632583819
12.4999997317791 5.02214210855619
12.5199997313321 4.96775050945572
12.539999730885 4.91451633998317
12.559999730438 4.83151010760511
12.579999729991 4.76922910607103
12.5999997295439 4.71760507001839
12.6199997290969 4.66405109454194
12.6399997286499 4.72514353712209
12.6599997282028 4.78073292082521
12.6799997277558 4.88067744030854
12.6999997273088 4.84524832428406
12.7199997268617 4.82595753849643
12.7399997264147 4.88131402112145
12.7599997259676 4.95226990794934
12.7799997255206 5.00708969889434
12.7999997250736 4.97925069854895
12.8199997246265 4.92627902380855
12.8399997241795 4.86188107527922
12.8599997237325 4.88124665613851
12.8799997232854 4.94939536610921
12.8999997228384 4.97752720726693
12.9199997223914 4.87278547521328
12.9399997219443 4.75635220618748
12.9599997214973 4.71412671446933
12.9799997210503 4.75118858202089
12.9999997206032 4.7320920902679
13.0199997201562 4.80426926809147
13.0399997197092 4.86738228831325
13.0599997192621 4.92235345242391
13.0799997188151 4.91711303950378
13.0999997183681 4.89939648391209
13.119999717921 4.86890572307281
13.139999717474 4.80927312194888
13.1599997170269 4.83038538701802
13.1799997165799 4.88765353567074
13.1999997161329 4.89949452956024
13.2199997156858 4.85805536116952
13.2399997152388 4.86498925255017
13.2599997147918 4.91076452097982
13.2799997143447 4.85713160134364
13.2999997138977 4.79368845668061
13.3199997134507 4.82123149317969
13.3399997130036 4.91581070852455
13.3599997125566 4.95735648151696
13.3799997121096 4.92250511387981
13.3999997116625 4.88856227589408
13.4199997112155 4.88036478762945
13.4399997107685 4.89818287164715
13.4599997103214 4.92204570902285
13.4799997098744 4.95965596714654
13.4999997094274 4.97083829891227
13.5199997089803 4.99800863477981
13.5399997085333 5.08671730253988
13.5599997080863 5.07629060381675
13.5799997076392 5.02187990142239
13.5999997071922 4.954941482023
13.6199997067451 4.9905579573065
13.6399997062981 4.95558988365539
13.6599997058511 4.94218878273544
13.679999705404 4.84102153683592
13.699999704957 4.86130488931928
13.71999970451 4.8558415960667
13.7399997040629 4.96059399986724
13.7599997036159 5.00899485538101
13.7799997031689 5.08111017998649
13.7999997027218 5.10327422182207
13.8199997022748 5.01947456919489
13.8399997018278 4.9268060253344
13.8599997013807 4.84703835065404
13.8799997009337 4.84495526107889
13.8999997004867 4.92342307775127
13.9199997000396 5.00050635438135
13.9399996995926 4.98527104364453
13.9599996991456 4.94586966260171
13.9799996986985 4.95233596486612
13.9999996982515 5.00488759364055
14.0199996978045 5.00558266528384
14.0399996973574 5.01562160335718
14.0599996969104 5.01752877265549
14.0799996964633 5.0926152873477
14.0999996960163 5.07161357698564
14.1199996955693 5.10792378372736
14.1399996951222 5.12533230128493
14.1599996946752 5.17723044287618
14.1799996942282 5.16083181648854
14.1999996937811 5.20948652138201
14.2199996933341 5.27348957657144
14.2399996928871 5.29161558138642
14.25999969244 5.26676497085311
14.279999691993 5.22724592219094
14.299999691546 5.21701996011129
14.3199996910989 5.24471730936357
14.3399996906519 5.31375537918221
14.3599996902049 5.39146587056646
14.3799996897578 5.45714636967638
14.3999996893108 5.47476612380654
14.4199996888638 5.54676086705861
14.4399996884167 5.64590338734619
14.4599996879697 5.79147055748286
14.4799996875226 5.95026889203442
14.4999996870756 6.0854968056488
14.5199996866286 6.26621265949102
14.5399996861815 6.43595229803327
14.5599996857345 6.59646106180825
14.5799996852875 6.79417008625766
14.5999996848404 7.04069846313783
14.6199996843934 7.34132157933774
14.6399996839464 7.70139216686958
14.6599996834993 8.16370499805743
14.6799996830523 8.54430914269512
14.6999996826053 9.07786713724377
14.7199996821582 9.5909023574659
14.7399996817112 10.0306388834696
14.7599996812642 10.4375937298691
14.7799996808171 10.6960606111621
14.7999996803701 10.7808997476982
14.8199996799231 10.770806932783
14.839999679476 10.7297017627855
14.859999679029 10.5667030155621
14.879999678582 10.180569405494
14.8999996781349 9.67750228467639
14.9199996776879 9.21257098026435
14.9399996772408 8.72609499413656
14.9599996767938 8.31887748318332
14.9799996763468 7.95952022308673
14.9999996758997 7.48723708261999
15.0199996754527 7.13230188610443
15.0399996750057 6.83250353254114
15.0599996745586 6.56223191427331
15.0799996741116 6.19489236971625
15.0999996736646 5.96067153018641
15.1199996732175 5.73068707551687
15.1399996727705 5.62889204655252
15.1599996723235 5.54839621312362
15.1799996718764 5.4836955096394
15.1999996714294 5.40930010063368
15.2199996709824 5.37982730694524
15.2399996705353 5.34020974433819
15.2599996700883 5.30053831358572
15.2799996696413 5.20020614759276
15.2999996691942 5.14574903687998
15.3199996687472 5.11290544452993
15.3399996683002 5.10336198751075
15.3599996678531 5.14266501413213
15.3799996674061 5.14894670134997
15.399999666959 5.06190799371948
15.419999666512 4.96285069118891
15.439999666065 4.93704460316676
15.4599996656179 4.96965347489014
15.4799996651709 4.92426009327212
15.4999996647239 4.90505171160851
15.5199996642768 4.92882293399692
15.5399996638298 5.01530365407085
15.5599996633828 5.02370107703696
15.5799996629357 5.02976237556799
15.5999996624887 4.96523960873094
15.6199996620417 4.9184277932057
15.6399996615946 4.93045917055747
15.6599996611476 4.97393829091215
15.6799996607006 4.9765778964122
15.6999996602535 4.95456744051051
15.7199996598065 4.90839511699356
15.7399996593595 4.89738842156682
15.7599996589124 4.92507009422496
15.7799996584654 4.98454271487025
15.7999996580184 4.98643413529528
15.8199996575713 4.9233662522288
15.8399996571243 4.82128476914166
15.8599996566772 4.7773085859576
15.8799996562302 4.82890114197847
15.8999996557832 4.88059459885284
15.9199996553361 4.88840264801447
15.9399996548891 4.94775594529563
15.9599996544421 4.959289306185
15.979999653995 4.88733255390823
15.999999653548 4.77512861392269
16.019999653101 4.78562913283622
16.0399996526539 4.78749289432613
16.0599996522069 4.80061863912815
16.0799996517599 4.71058927680539
16.0999996513128 4.71144350527659
16.1199996508658 4.72814459335889
16.1399996504188 4.76681992784646
16.1599996499717 4.79961674361034
16.1799996495247 4.85880622815852
16.1999996490777 4.91214367043689
16.2199996486306 4.93391572558331
16.2399996481836 4.92357078929952
16.2599996477365 4.88891072177984
16.2799996472895 4.93324349881744
16.2999996468425 4.95424310546158
16.3199996463954 4.97935944423472
16.3399996459484 4.99391880424533
16.3599996455014 4.96968151950944
16.3799996450543 4.89776035070299
16.3999996446073 4.82035766043265
16.4199996441603 4.89489881063979
16.4399996437132 4.9847072767172
16.4599996432662 5.04113152671093
16.4799996428192 5.02639389640577
16.4999996423721 5.01507309772958
16.5199996419251 5.01195587724536
16.5399996414781 4.97165138489568
16.559999641031 4.92609125628965
16.579999640584 4.94642704694873
16.599999640137 4.95755133350806
16.6199996396899 4.89880145768181
16.6399996392429 4.87407918970598
16.6599996387959 4.90118975382951
16.6799996383488 4.96255770415892
16.6999996379018 5.01608012978145
16.7199996374547 5.04523064287727
16.7399996370077 5.0164497043712
16.7599996365607 4.98375769210693
16.7799996361136 4.97262265475273
16.7999996356666 5.02283193360993
16.8199996352196 5.06173104374686
16.8399996347725 5.01563290105172
16.8599996343255 4.96413225448085
16.8799996338785 4.94570866393778
16.8999996334314 4.97698779070341
16.9199996329844 5.02201214554015
16.9399996325374 5.02594584502492
16.9599996320903 4.98686433236885
16.9799996316433 5.02045937562494
16.9999996311963 5.06833622329566
17.0199996307492 5.09425046221178
17.0399996303022 5.07616737729025
17.0599996298552 5.09324333710864
17.0799996294081 5.12262493165171
17.0999996289611 5.14610630575636
17.1199996285141 5.09878294583913
17.139999628067 5.03922783175597
17.15999962762 5.00272253861486
17.1799996271729 5.02126742113201
17.1999996267259 5.01831721385868
17.2199996262789 5.01421676047009
17.2399996258318 5.00105182803695
17.2599996253848 4.99954481727121
17.2799996249378 5.01246790943445
17.2999996244907 5.07604947738038
17.3199996240437 5.13999428216675
17.3399996235967 5.1420289979661
17.3599996231496 5.12750900518774
17.3799996227026 5.08455167177639
17.3999996222556 5.07395924556922
17.4199996218085 5.04129150038438
17.4399996213615 5.03423952404338
17.4599996209145 5.06351626343069
17.4799996204674 5.08913674039664
17.4999996200204 5.08674675964019
17.5199996195734 5.09485117460139
17.5399996191263 5.10930554217173
17.5599996186793 5.09410427159588
17.5799996182323 5.07791924489773
17.5999996177852 5.09492176811568
17.6199996173382 5.12688999694464
17.6399996168911 5.11707781409934
17.6599996164441 5.08327913367395
17.6799996159971 5.12978446360011
17.69999961555 5.16729846603775
17.719999615103 5.19159531676326
17.739999614656 5.21525259762622
17.7599996142089 5.19055967978165
17.7799996137619 5.14275966833116
17.7999996133149 5.12841670805006
17.8199996128678 5.16272500898967
17.8399996124208 5.22725886276801
17.8599996119738 5.28015831932483
17.8799996115267 5.26658783021358
17.8999996110797 5.25087269133371
17.9199996106327 5.22093125296985
17.9399996101856 5.23544835779224
17.9599996097386 5.23648634367553
17.9799996092916 5.2688454727264
17.9999996088445 5.25699396247915
18.0199996083975 5.18940120052851
18.0399996079504 5.17075143284098
18.0599996075034 5.23983037625108
18.0799996070564 5.30191923855486
18.0999996066093 5.30976849639007
18.1199996061623 5.27348700232098
18.1399996057153 5.23606961371254
18.1599996052682 5.18057934959883
18.1799996048212 5.18817927178503
18.1999996043742 5.17658186776082
18.2199996039271 5.21745098774894
18.2399996034801 5.289826516121
18.2599996030331 5.37292049112943
18.279999602586 5.37736959406109
18.299999602139 5.40677891427923
18.319999601692 5.3770914739942
18.3399996012449 5.32423163245865
18.3599996007979 5.26892026215609
18.3799996003509 5.26814960307823
18.3999995999038 5.26871126516885
18.4199995994568 5.28773999314259
18.4399995990098 5.30198528785867
18.4599995985627 5.30544365272922
18.4799995981157 5.33940215785042
18.4999995976686 5.34535543801396
18.5199995972216 5.33488096769342
18.5399995967746 5.34809471417304
18.5599995963275 5.43125472660311
18.5799995958805 5.48990933429577
18.5999995954335 5.52045196106184
18.6199995949864 5.52380371818488
18.6399995945394 5.45443751644999
18.6599995940924 5.41875509867544
18.6799995936453 5.40737958446178
18.6999995931983 5.41567755269869
18.7199995927513 5.46867611016784
18.7399995923042 5.56806450060076
18.7599995918572 5.56241437780679
18.7799995914102 5.52799630021621
18.7999995909631 5.45146708698253
18.8199995905161 5.44729821085714
18.8399995900691 5.42615949641104
18.859999589622 5.44377411955787
18.879999589175 5.48079681094558
18.899999588728 5.5209657671604
18.9199995882809 5.54159049314045
18.9399995878339 5.49142149377801
18.9599995873868 5.44742700719574
18.9799995869398 5.41679747972871
18.9999995864928 5.4413252742284
19.0199995860457 5.50306088058888
19.0399995855987 5.5574499748328
19.0599995851517 5.57798918272671
19.0799995847046 5.53265947597092
19.0999995842576 5.49133380943159
19.1199995838106 5.44831875031564
19.1399995833635 5.51320405864896
19.1599995829165 5.589558722214
19.1799995824695 5.66953805200674
19.1999995820224 5.70151153689285
19.2199995815754 5.70741183806911
19.2399995811284 5.66321152847512
19.2599995806813 5.61149803942516
19.2799995802343 5.56963039678919
19.2999995797873 5.56369989016928
19.3199995793402 5.56548619771692
19.3399995788932 5.61298537463619
19.3599995784462 5.69320327870411
19.3799995779991 5.73211278635125
19.3999995775521 5.70873587166808
19.419999577105 5.67175579170743
19.439999576658 5.68310995675445
19.459999576211 5.68223711414674
19.4799995757639 5.67866252068835
19.4999995753169 5.69018618683808
19.5199995748699 5.73866705100379
19.5399995744228 5.8090997251552
19.5599995739758 5.82822243862949
19.5799995735288 5.78418096282196
19.5999995730817 5.72321674366833
19.6199995726347 5.76451645211149
19.6399995721877 5.77658725125801
19.6599995717406 5.80274682768847
19.6799995712936 5.8059129616968
19.6999995708466 5.82990159690872
19.7199995703995 5.8350853663173
19.7399995699525 5.86198264292161
19.7599995695055 5.85748868209653
19.7799995690584 5.84121533588388
19.7999995686114 5.83890814423012
19.8199995681643 5.8721972166398
19.8399995677173 5.86817280759925
19.8599995672703 5.9142697038957
19.8799995668232 5.91176495137094
19.8999995663762 5.90499869256559
19.9199995659292 5.88449888341897
19.9399995654821 5.89724730790066
19.9599995650351 5.88588305505909
19.9799995645881 5.87518060447118
19.999999564141 5.97367713851831
20.019999563694 6.07010027303831
20.039999563247 6.09115492095255
20.0599995627999 6.00629189578327
20.0799995623529 5.96103147446633
20.0999995619059 5.96927029896545
20.1199995614588 6.03941053441259
20.1399995610118 6.03843944260879
20.1599995605648 5.98570809184413
20.1799995601177 5.94129130405927
20.1999995596707 5.95189326342966
20.2199995592237 5.99970142382546
20.2399995587766 6.08726095879968
20.2599995583296 6.1091489740951
20.2799995578825 6.18168758951191
20.2999995574355 6.21946363336562
20.3199995569885 6.26393922238684
20.3399995565414 6.15656429332211
20.3599995560944 6.05722936554688
20.3799995556474 6.02601386053483
20.3999995552003 6.08396924705247
20.4199995547533 6.16532786375693
20.4399995543063 6.22329292729904
20.4599995538592 6.25750766543382
20.4799995534122 6.29473471128042
20.4999995529652 6.31631292068428
20.5199995525181 6.29457929107529
20.5399995520711 6.27205957048377
20.5599995516241 6.33036391846405
20.579999551177 6.4332893635118
20.59999955073 6.57650400958067
20.619999550283 6.63854918465021
20.6399995498359 6.66875304252289
20.6599995493889 6.7340321501979
20.6799995489419 6.78364741159402
20.6999995484948 6.89545715684518
20.7199995480478 6.98566816740483
20.7399995476007 7.10960183720659
20.7599995471537 7.17763163854528
20.7799995467067 7.36130668271661
20.7999995462596 7.54975159582218
20.8199995458126 7.77658723062962
20.8399995453656 7.99339165623273
20.8599995449185 8.23726616057865
20.8799995444715 8.47260296828988
20.8999995440245 8.72527153866235
20.9199995435774 8.9138446856163
20.9399995431304 9.04380254073526
20.9599995426834 9.09410531827003
20.9799995422363 9.11494489709152
20.9999995417893 9.12036742334106
21.0199995413423 9.1172788178414
21.0399995408952 9.09887345228691
21.0599995404482 9.01052133662062
21.0799995400012 8.82677586434732
21.0999995395541 8.59143413057003
21.1199995391071 8.4463167649829
21.13999953866 8.26524062184382
21.159999538213 8.07082433820655
21.179999537766 7.84395420460611
21.1999995373189 7.64389935609658
21.2199995368719 7.47973384061354
21.2399995364249 7.33793238773049
21.2599995359778 7.27119802970186
21.2799995355308 7.1927661142472
21.2999995350838 7.10185440983152
21.3199995346367 6.99146582356545
21.3399995341897 6.95714600907194
21.3599995337427 6.93535452102113
21.3799995332956 6.84028354701188
21.3999995328486 6.76088119269957
21.4199995324016 6.74364518757263
21.4399995319545 6.81697702682386
21.4599995315075 6.88189162133438
21.4799995310605 6.85258428848861
21.4999995306134 6.78727455794706
21.5199995301664 6.70430353947747
21.5399995297194 6.68127377669466
21.5599995292723 6.67935681886298
21.5799995288253 6.74940289771873
21.5999995283782 6.7510697512499
21.6199995279312 6.72410898001598
21.6399995274842 6.72981034619516
21.6599995270371 6.75109418940541
21.6799995265901 6.78248107200902
21.6999995261431 6.82383806952233
21.719999525696 6.79753359447935
21.739999525249 6.74833017360234
21.759999524802 6.6883593357976
21.7799995243549 6.71508905973902
21.7999995239079 6.72164677600064
21.8199995234609 6.68739427497972
21.8399995230138 6.68073304122373
21.8599995225668 6.6808243368587
21.8799995221198 6.68748668203517
21.8999995216727 6.70221950344968
21.9199995212257 6.74140165702353
21.9399995207787 6.76928261454879
21.9599995203316 6.79040937579679
21.9799995198846 6.81053610532643
21.9999995194376 6.78642933084971
22.0199995189905 6.80122094967306
22.0399995185435 6.81094835641738
22.0599995180964 6.85489470864271
22.0799995176494 6.81609319526046
22.0999995172024 6.76939311810999
22.1199995167553 6.76879822295195
22.1399995163083 6.80262900969226
22.1599995158613 6.83635976588045
22.1799995154142 6.88792744228588
22.1999995149672 6.92283916394808
22.2199995145202 6.91940614332894
22.2399995140731 6.90312181076597
22.2599995136261 6.87898637033404
22.2799995131791 6.91935509295323
22.299999512732 6.89011229779894
22.319999512285 6.90532101704195
22.339999511838 6.9024192384562
22.3599995113909 6.92080123775555
22.3799995109439 6.86896879641341
22.3999995104969 6.88635982534168
22.4199995100498 6.95959014406195
22.4399995096028 7.03897101014019
22.4599995091558 7.09927945577135
22.4799995087087 7.06326517077625
22.4999995082617 7.04443962407031
22.5199995078146 7.09000541528477
22.5399995073676 7.1259674949963
22.5599995069206 7.11209648021697
22.5799995064735 7.08194800972651
22.5999995060265 7.08885908966344
22.6199995055795 7.11823172423777
22.6399995051324 7.09926744529124
22.6599995046854 7.13820280978667
22.6799995042384 7.12997881310839
22.6999995037913 7.15502912736655
22.7199995033443 7.16744875576428
22.7399995028973 7.16961774285091
22.7599995024502 7.14234953830224
22.7799995020032 7.13016268438699
22.7999995015562 7.13147529866067
22.8199995011091 7.06813485010474
22.8399995006621 6.98052232542385
22.8599995002151 7.00937147233709
22.879999499768 7.09790061022819
22.899999499321 7.06950378293387
22.9199994988739 7.00856748974376
22.9399994984269 6.98562301219632
22.9599994979799 7.10481280934078
22.9799994975328 7.1656568208564
22.9999994970858 7.15505147163475
23.0199994966388 7.109780738653
23.0399994961917 7.10013952053535
23.0599994957447 7.10555936701537
23.0799994952977 7.08868914274223
23.0999994948506 7.12725478538899
23.1199994944036 7.16264323499769
23.1399994939566 7.16926015859685
23.1599994935095 7.21840126286977
23.1799994930625 7.24765086182633
23.1999994926155 7.2702646466191
23.2199994921684 7.2966327661126
23.2399994917214 7.31997636866073
23.2599994912744 7.29380257947096
23.2799994908273 7.23913173193582
23.2999994903803 7.31617351793341
23.3199994899333 7.42416095123008
23.3399994894862 7.46602710989146
23.3599994890392 7.45695733184128
23.3799994885921 7.44251939379095
23.3999994881451 7.4384264416899
23.4199994876981 7.44012160248543
23.439999487251 7.41156765047873
23.459999486804 7.39581414995957
23.479999486357 7.35333703749528
23.4999994859099 7.35829793609793
23.5199994854629 7.39305679413621
23.5399994850159 7.41704111714297
23.5599994845688 7.47678724665778
23.5799994841218 7.51402002873015
23.5999994836748 7.4976404829044
23.6199994832277 7.48337765719786
23.6399994827807 7.51456562083077
23.6599994823337 7.48210876051371
23.6799994818866 7.3784913564209
23.6999994814396 7.372573477652
23.7199994809926 7.48557511970002
23.7399994805455 7.55713943720449
23.7599994800985 7.51005278998421
23.7799994796515 7.43890807913454
23.7999994792044 7.3996155247968
23.8199994787574 7.37846047601464
23.8399994783103 7.32824388228671
23.8599994778633 7.35408924041114
23.8799994774163 7.39621172389771
23.8999994769692 7.43728907552638
23.9199994765222 7.40646137085519
23.9399994760752 7.39325749273317
23.9599994756281 7.36336263672121
23.9799994751811 7.34539366123529
23.9999994747341 7.33307593458823
24.019999474287 7.31817673024952
24.03999947384 7.29913102095044
24.059999473393 7.33468508834188
24.0799994729459 7.36611033196488
24.0999994724989 7.39884722255821
24.1199994720519 7.36999774449866
24.1399994716048 7.36306506014351
24.1599994711578 7.39295185614904
24.1799994707108 7.446880402198
24.1999994702637 7.51636344495019
24.2199994698167 7.52104543977072
24.2399994693697 7.44233543607652
24.2599994689226 7.3534522738836
24.2799994684756 7.36392140963079
24.2999994680285 7.38810360185351
24.3199994675815 7.36492354174409
24.3399994671345 7.33001746644371
24.3599994666874 7.29848352131433
24.3799994662404 7.30641699224657
24.3999994657934 7.29881975445378
24.4199994653463 7.33491259886569
24.4399994648993 7.40047103201661
24.4599994644523 7.40059362489315
24.4799994640052 7.42825151248487
24.4999994635582 7.46876217196794
24.5199994631112 7.54478987344287
24.5399994626641 7.49327658491751
24.5599994622171 7.4521681527538
24.5799994617701 7.56459203610014
24.599999461323 7.65454239378056
24.619999460876 7.59388260524707
24.639999460429 7.44945833718912
24.6599994599819 7.41399086510186
24.6799994595349 7.42696385372642
24.6999994590878 7.42013402828564
24.7199994586408 7.3734683118055
24.7399994581938 7.36608636154518
24.7599994577467 7.3762841911669
24.7799994572997 7.45135054043901
24.7999994568527 7.52215151741707
24.8199994564056 7.49404246030083
24.8399994559586 7.45116292437308
24.8599994555116 7.45552691371201
24.8799994550645 7.48831048903919
24.8999994546175 7.5488877788332
24.9199994541705 7.51430173792341
24.9399994537234 7.4867921218441
24.9599994532764 7.43930842068437
24.9799994528294 7.53106656536396
24.9999994523823 7.53032009745575
25.0199994519353 7.53840102289014
25.0399994514883 7.45426051546211
25.0599994510412 7.53677264485958
25.0799994505942 7.5433543198443
25.0999994501472 7.59907987529737
25.1199994497001 7.57463713009616
25.1399994492531 7.63415911743477
25.159999448806 7.67847343518715
25.179999448359 7.73003188735444
25.199999447912 7.70265611981205
25.2199994474649 7.67323744024962
25.2399994470179 7.6663087654292
25.2599994465709 7.74770011893715
25.2799994461238 7.79375092835463
25.2999994456768 7.80092220138266
25.3199994452298 7.81859692541571
25.3399994447827 7.97814832707657
25.3599994443357 8.09321897074009
25.3799994438887 8.15329468138975
25.3999994434416 8.18151480154437
25.4199994429946 8.18865752430274
25.4399994425476 8.18423840084887
25.4599994421005 8.22518891232537
25.4799994416535 8.25396733837509
25.4999994412065 8.27309634930435
25.5199994407594 8.29022588106672
25.5399994403124 8.27212641564317
25.5599994398654 8.22158486305832
25.5799994394183 8.18257036640724
25.5999994389713 8.21933444320682
25.6199994385242 8.21440471506568
25.6399994380772 8.04901595015165
25.6599994376302 7.90552896822684
25.6799994371831 7.77771458128641
25.6999994367361 7.75177016152335
25.7199994362891 7.73473275737727
25.739999435842 7.73869027105454
25.759999435395 7.75817536386735
25.779999434948 7.77075321716905
25.7999994345009 7.75841576169059
25.8199994340539 7.71991469274592
25.8399994336069 7.72876353702834
25.8599994331598 7.75372482378096
25.8799994327128 7.78853032253287
25.8999994322658 7.75567652319747
25.9199994318187 7.75297930438422
25.9399994313717 7.7035206651207
25.9599994309247 7.67435714521963
25.9799994304776 7.71146355263259
25.9999994300306 7.68810040388656
26.0199994295836 7.61530058857893
26.0399994291365 7.57983502828686
26.0599994286895 7.57107255273593
26.0799994282424 7.55029939849726
26.0999994277954 7.47739100643238
26.1199994273484 7.44264480988074
26.1399994269013 7.4766017064663
26.1599994264543 7.42343502788502
26.1799994260073 7.4844658353197
26.1999994255602 7.55643910547922
26.2199994251132 7.62966671138974
26.2399994246662 7.57759692177391
26.2599994242191 7.50865525598104
26.2799994237721 7.53698682501307
26.2999994233251 7.58828300198341
26.319999422878 7.64942705505899
26.339999422431 7.63348294908079
26.359999421984 7.551591488078
26.3799994215369 7.56459062954865
26.3999994210899 7.61436017119084
26.4199994206429 7.63929215743471
26.4399994201958 7.61329284348059
26.4599994197488 7.59830289532781
26.4799994193017 7.63853740171848
26.4999994188547 7.5932282663563
26.5199994184077 7.56330874347725
26.5399994179606 7.54871680596607
26.5599994175136 7.556243849639
26.5799994170666 7.5593550430646
26.5999994166195 7.5360095644762
26.6199994161725 7.58085094142498
26.6399994157255 7.57435165836572
26.6599994152784 7.52585658315012
26.6799994148314 7.57086548715915
26.6999994143844 7.56679099339178
26.7199994139373 7.56246868589368
26.7399994134903 7.54374794489903
26.7599994130433 7.54397672139819
26.7799994125962 7.5178177659449
26.7999994121492 7.45152445523266
26.8199994117022 7.41249197720503
26.8399994112551 7.44833423943136
26.8599994108081 7.45750251062887
26.8799994103611 7.51953841595019
26.899999409914 7.53351394775286
26.919999409467 7.50879903209249
26.9399994090199 7.46565601924121
26.9599994085729 7.4718440686619
26.9799994081259 7.5185449946671
26.9999994076788 7.51496385819539
27.0199994072318 7.53912574346733
27.0399994067848 7.51138994140103
27.0599994063377 7.49527959797876
27.0799994058907 7.44930907470269
27.0999994054437 7.46211132686902
27.1199994049966 7.54132822579079
27.1399994045496 7.53218537075423
27.1599994041026 7.49992658096473
27.1799994036555 7.46524094843381
27.1999994032085 7.54122247836297
27.2199994027615 7.53451586795072
27.2399994023144 7.57733846209864
27.2599994018674 7.52343929051526
27.2799994014204 7.47557131122939
27.2999994009733 7.50322396159522
27.3199994005263 7.50757460830124
27.3399994000793 7.62143370908236
27.3599993996322 7.5046394134627
27.3799993991852 7.5438373497244
27.3999993987381 7.52578629524539
27.4199993982911 7.60060830468632
27.4399993978441 7.59251377764862
27.459999397397 7.55104654049392
27.47999939695 7.54697784928519
27.499999396503 7.55781733776138
27.5199993960559 7.64834323952507
27.5399993956089 7.64363088360159
27.5599993951619 7.6821113431812
27.5799993947148 7.65787968676677
27.5999993942678 7.67775136948284
27.6199993938208 7.69789538237129
27.6399993933737 7.56305808036499
27.6599993929267 7.44925760814565
27.6799993924797 7.37812835888353
27.6999993920326 7.47084818188182
27.7199993915856 7.56301005230179
27.7399993911386 7.59025860545699
27.7599993906915 7.58556161541697
27.7799993902445 7.52391101359633
27.7999993897974 7.43755117380173
27.8199993893504 7.34403556851452
27.8399993889034 7.33252300180946
27.8599993884563 7.41106494663377
27.8799993880093 7.52239610054
27.8999993875623 7.56751856727679
27.9199993871152 7.54321088059507
27.9399993866682 7.50210973004692
27.9599993862212 7.42649312917861
27.9799993857741 7.50557338133501
27.9999993853271 7.56638409937256
28.0199993848801 7.63093851610371
28.039999384433 7.56033447066425
28.059999383986 7.51877167619399
28.079999383539 7.51375883286114
28.0999993830919 7.46290415094757
28.1199993826449 7.50180843972824
28.1399993821979 7.5591495055575
28.1599993817508 7.61079882126591
28.1799993813038 7.52347474142957
28.1999993808568 7.41709760142764
28.2199993804097 7.4221682935232
28.2399993799627 7.55352570326954
28.2599993795156 7.61010354146685
28.2799993790686 7.63603292909892
28.2999993786216 7.54146500486964
28.3199993781745 7.58095635935717
28.3399993777275 7.57042490734825
28.3599993772805 7.58154063158634
28.3799993768334 7.58695444555727
28.3999993763864 7.60213269575711
28.4199993759394 7.5988418993241
28.4399993754923 7.58809279766788
28.4599993750453 7.60544321498944
28.4799993745983 7.65391736172416
28.4999993741512 7.64461473321489
28.5199993737042 7.60550906173615
28.5399993732572 7.65239089666581
28.5599993728101 7.72592649033272
28.5799993723631 7.7868786094227
28.5999993719161 7.71303053727896
28.619999371469 7.6586329774919
28.639999371022 7.61577979193793
28.659999370575 7.65111524323866
28.6799993701279 7.65346759285341
28.6999993696809 7.62156428378164
28.7199993692338 7.63897994696331
28.7399993687868 7.55511352610241
28.7599993683398 7.55291944766681
28.7799993678927 7.52630524429635
28.7999993674457 7.66173969073065
28.8199993669987 7.80134616415234
28.8399993665516 7.87425305715172
28.8599993661046 7.83198696582549
28.8799993656576 7.73889741634124
28.8999993652105 7.75012147285519
28.9199993647635 7.79447374344149
28.9399993643165 7.81608115054282
28.9599993638694 7.82760526357834
28.9799993634224 7.82701548931231
28.9999993629754 7.9128401933214
29.0199993625283 7.95800622147785
29.0399993620813 8.04850853495641
29.0599993616343 8.10798614300598
29.0799993611872 8.19591135849561
29.0999993607402 8.18234455810604
29.1199993602932 8.18156621153924
29.1399993598461 8.27179745511498
29.1599993593991 8.41000806816
29.179999358952 8.4239763757073
29.199999358505 8.41204009917555
29.219999358058 8.46833477714915
29.2399993576109 8.66478818722802
29.2599993571639 8.89578392587525
29.2799993567169 9.09530618481531
29.2999993562698 9.35785105758253
29.3199993558228 9.54166927583056
29.3399993553758 9.85242726402057
29.3599993549287 10.1189296510812
29.3799993544817 10.5065451389635
29.3999993540347 10.8423125347435
29.4199993535876 11.2151627567946
29.4399993531406 11.4267671061556
29.4599993526936 11.6636179180322
29.4799993522465 11.8504856443839
29.4999993517995 11.9819978595273
29.5199993513525 12.0396529845579
29.5399993509054 12.0712913407506
29.5599993504584 12.0231405124689
29.5799993500113 11.9166582683464
29.5999993495643 11.712981492421
29.6199993491173 11.5114457805391
29.6399993486702 11.2490533746259
29.6599993482232 10.9599986824207
29.6799993477762 10.6271183286996
29.6999993473291 10.2962201252651
29.7199993468821 9.8963547179027
29.7399993464351 9.64364068476042
29.759999345988 9.43868674094309
29.779999345541 9.13114025401442
29.799999345094 8.87391728528226
29.8199993446469 8.64288325605484
29.8399993441999 8.48580060876768
29.8599993437529 8.37554970345682
29.8799993433058 8.34083686201898
29.8999993428588 8.19563926910569
29.9199993424118 7.99132615950828
29.9399993419647 7.8638392588533
29.9599993415177 7.80997691532422
29.9799993410707 7.82253097318877
29.9999993406236 7.75603472205973
30.0199993401766 7.73044923366982
30.0399993397295 7.70690337387284
30.0599993392825 7.67415063730191
30.0799993388355 7.64919836509622
30.0999993383884 7.57161319686953
30.1199993379414 7.53600061458115
30.1399993374944 7.49805310816911
30.1599993370473 7.50359368055556
30.1799993366003 7.52752494839858
30.1999993361533 7.45175726181515
30.2199993357062 7.39735628192686
30.2399993352592 7.27791683520864
30.2599993348122 7.30051561772084
30.2799993343651 7.37819231398778
30.2999993339181 7.45857588342235
30.3199993334711 7.49196805635429
30.339999333024 7.41116115239766
30.359999332577 7.38338669336316
30.37999933213 7.30077437354169
30.3999993316829 7.26713940931967
30.4199993312359 7.22276531782341
30.4399993307889 7.21356975195251
30.4599993303418 7.22389271050664
30.4799993298948 7.17845726106225
30.4999993294477 7.07896745620899
30.5199993290007 7.08628402115274
30.5399993285537 7.16821214011635
30.5599993281066 7.24194749523476
30.5799993276596 7.2465827608255
30.5999993272126 7.23289045101963
30.6199993267655 7.19032946314915
30.6399993263185 7.13140148091991
30.6599993258715 7.13257807836295
30.6799993254244 7.25200944199177
30.6999993249774 7.27359094086964
30.7199993245304 7.18828265103016
30.7399993240833 7.17891547063231
30.7599993236363 7.16927966990786
30.7799993231893 7.16429254136069
30.7999993227422 7.10104712169291
30.8199993222952 7.08763681338342
30.8399993218482 7.08625903784692
30.8599993214011 7.0955736198323
30.8799993209541 7.09225975863235
30.8999993205071 7.10579973799067
30.91999932006 7.07359922265971
30.939999319613 7.15181583185332
30.9599993191659 7.19793600693032
30.9799993187189 7.23048774581386
30.9999993182719 7.167414179044
31.0199993178248 7.17887330405696
31.0399993173778 7.1555071443645
31.0599993169308 7.23976697419743
31.0799993164837 7.22996195933042
31.0999993160367 7.15936683351696
31.1199993155897 7.07069444175423
31.1399993151426 7.12249275497216
31.1599993146956 7.16867388918256
31.1799993142486 7.11789004257709
31.1999993138015 7.03523821382935
31.2199993133545 7.04396769096177
31.2399993129075 6.99052718594819
31.2599993124604 7.00259159362928
31.2799993120134 7.02048873745324
31.2999993115664 7.09100683321236
31.3199993111193 7.12911934797103
31.3399993106723 7.16022237339282
31.3599993102252 7.22642140414379
31.3799993097782 7.17323561740685
31.3999993093312 7.17195849891194
31.4199993088841 7.13592861622564
31.4399993084371 7.14535679736707
31.4599993079901 7.11182424920431
31.479999307543 7.06988439949014
31.499999307096 7.08309455543676
31.519999306649 7.14008720419676
31.5399993062019 7.1836856461151
31.5599993057549 7.20757595634619
31.5799993053079 7.20631315400666
31.5999993048608 7.11026951923767
31.6199993044138 7.02892430205332
31.6399993039668 6.93274703274414
31.6599993035197 6.97252620718303
31.6799993030727 6.95504883635513
31.6999993026257 6.97769314196775
31.7199993021786 6.97637977387805
31.7399993017316 6.98677215888141
31.7599993012846 6.95757211491365
31.7799993008375 6.94299480248398
31.7999993003905 6.92943661942903
31.8199992999434 6.92290154718261
31.8399992994964 6.90483604203035
31.8599992990494 6.9023939658329
31.8799992986023 6.95280767129333
31.8999992981553 7.02908914390275
31.9199992977083 7.05161739788108
31.9399992972612 7.01012547561255
31.9599992968142 6.96943812147396
31.9799992963672 6.98221318140557
31.9999992959201 7.05548433501898
32.0199992954731 7.09460926521223
32.0399992950261 7.10273419224392
32.059999294579 7.02896616638308
32.079999294132 6.98315456673967
32.099999293685 6.95674547783217
32.1199992932379 6.97946536584124
32.1399992927909 6.99703471797891
32.1599992923439 7.03050503611002
32.1799992918968 7.07181205760423
32.1999992914498 7.08147029505323
32.2199992910028 6.9975331279486
32.2399992905557 6.96882421499534
32.2599992901087 6.98312511455568
32.2799992896616 7.02060086722669
32.2999992892146 7.03544307156795
32.3199992887676 6.98274163437499
32.3399992883205 6.93626066858175
32.3599992878735 6.91612035522707
32.3799992874265 6.86751996521874
32.3999992869794 6.89788423069854
32.4199992865324 6.92804587776353
32.4399992860854 7.06622039383605
32.4599992856383 7.08934262164159
32.4799992851913 7.06755217481748
32.4999992847443 7.01666087756371
32.5199992842972 7.00995095060893
32.5399992838502 7.07297463847482
32.5599992834032 7.11102914117493
32.5799992829561 7.10619669073373
32.5999992825091 7.10434472288082
32.6199992820621 7.15704521606462
32.639999281615 7.22715892635691
32.659999281168 7.25139061575365
32.6799992807209 7.28162861902059
32.6999992802739 7.32590947407566
32.7199992798269 7.4075355721411
32.7399992793798 7.50260286287082
32.7599992789328 7.55790614849525
32.7799992784858 7.61788390630855
32.7999992780387 7.7267953521455
32.8199992775917 7.8375179294967
32.8399992771447 7.92605082039349
32.8599992766976 8.0428927474401
32.8799992762506 8.169217612585
32.8999992758036 8.28254931448519
32.9199992753565 8.37747687020229
32.9399992749095 8.48797623725336
32.9599992744625 8.69766054288348
32.9799992740154 8.94159933902534
32.9999992735684 9.16251653915821
33.0199992731214 9.23804767353825
33.0399992726743 9.28936281215682
33.0599992722273 9.26220466833979
33.0799992717803 9.26402645165051
33.0999992713332 9.27429518794287
33.1199992708862 9.13652294353887
33.1399992704391 8.9659529456362
33.1599992699921 8.75248114745305
33.1799992695451 8.60357678698261
33.199999269098 8.53978671917019
33.219999268651 8.37868885027055
33.239999268204 8.23328749694223
33.2599992677569 8.07965016099315
33.2799992673099 7.9091267881114
33.2999992668629 7.7014645278498
33.3199992664158 7.48915976690279
33.3399992659688 7.39985287069656
33.3599992655218 7.2235562728848
33.3799992650747 7.14608354357098
33.3999992646277 7.04502710820173
33.4199992641807 7.09140816046478
33.4399992637336 6.99339484785398
33.4599992632866 6.94230676328417
33.4799992628396 6.83023969927078
33.4999992623925 6.84392033569219
33.5199992619455 6.9196395569728
33.5399992614985 6.97456948892357
33.5599992610514 6.96820607819733
33.5799992606044 6.87705707971687
33.5999992601573 6.85252049900349
33.6199992597103 6.81201473213252
33.6399992592633 6.80785961776986
33.6599992588162 6.72600080405747
33.6799992583692 6.75396772822846
33.6999992579222 6.77997903387709
33.7199992574751 6.81543039671313
33.7399992570281 6.69080114033525
33.7599992565811 6.55053133217678
33.779999256134 6.48258579927328
33.799999255687 6.55007425392776
33.81999925524 6.56018173792655
33.8399992547929 6.50909672786029
33.8599992543459 6.42946102737257
33.8799992538989 6.40957013539419
33.8999992534518 6.43887859315779
33.9199992530048 6.39463811964203
33.9399992525578 6.42463838064156
33.9599992521107 6.43260715461328
33.9799992516637 6.42847817839508
33.9999992512167 6.43700611208687
34.0199992507696 6.45018499389576
34.0399992503226 6.47343399324546
34.0599992498755 6.40114070498678
34.0799992494285 6.31897284870569
34.0999992489815 6.33658913703974
34.1199992485344 6.38416110556049
34.1399992480874 6.3909406790878
34.1599992476404 6.37586210104361
34.1799992471933 6.37853248114426
34.1999992467463 6.37326808193206
34.2199992462993 6.35789608298038
34.2399992458522 6.32486429376351
34.2599992454052 6.31229603215041
34.2799992449582 6.25188287780287
34.2999992445111 6.19010712250576
34.3199992440641 6.19253964635814
34.3399992436171 6.31860401038793
34.35999924317 6.37911436753352
34.379999242723 6.32097247779156
34.399999242276 6.2189121144751
34.4199992418289 6.18071724415381
34.4399992413819 6.15440228349066
34.4599992409348 6.13912037165368
34.4799992404878 6.14004464310579
34.4999992400408 6.17762360021172
34.5199992395937 6.1563549275772
34.5399992391467 6.14670389928321
34.5599992386997 6.16717106886087
34.5799992382526 6.21958945713419
34.5999992378056 6.30436980502292
34.6199992373586 6.2978827809282
34.6399992369115 6.25544913732679
34.6599992364645 6.24180647149272
34.6799992360175 6.25540360782583
34.6999992355704 6.23550080122354
34.7199992351234 6.13850447075933
34.7399992346764 6.13118370463185
34.7599992342293 6.19607660943279
34.7799992337823 6.23952995596668
34.7999992333353 6.2115711777251
34.8199992328882 6.17372691211297
34.8399992324412 6.22023244961015
34.8599992319942 6.23981320964096
34.8799992315471 6.17532379368373
34.8999992311001 6.03352845093104
34.919999230653 6.02548178854365
34.939999230206 6.07897556649587
34.959999229759 6.14523483735994
34.9799992293119 6.0797285283701
34.9999992288649 6.03126468330602
35.0199992284179 6.05476046127999
35.0399992279708 6.10316539253667
35.0599992275238 6.08912712331997
35.0799992270768 6.04231822414029
35.0999992266297 6.06923447440907
35.1199992261827 6.12759243949281
35.1399992257357 6.15682924761328
35.1599992252886 6.11715408757185
35.1799992248416 6.1059668577866
35.1999992243946 6.09473704600732
35.2199992239475 6.12174105578858
35.2399992235005 6.0905749744367
35.2599992230535 6.03971910950498
35.2799992226064 6.02119483956185
35.2999992221594 5.95976639625133
35.3199992217124 5.97822531960924
35.3399992212653 5.87525680154786
35.3599992208183 5.86431101562019
35.3799992203712 5.84012711972959
35.3999992199242 5.97731269087224
35.4199992194772 6.05008660323992
35.4399992190301 6.00555682725335
35.4599992185831 5.93206598707825
35.4799992181361 5.90138384803713
35.499999217689 5.98731066875846
35.519999217242 5.97932634437155
35.539999216795 5.92251679442252
35.5599992163479 5.89434852923057
35.5799992159009 5.9818131420909
35.5999992154539 6.01311740727601
35.6199992150068 6.02765988380227
35.6399992145598 6.00614712298283
35.6599992141128 6.04955348855558
35.6799992136657 6.00538439561902
35.6999992132187 5.99275104770352
35.7199992127717 5.99951454580723
35.7399992123246 6.0167595800427
35.7599992118776 6.08121175403048
35.7799992114306 6.07439639158659
35.7999992109835 6.11045320391131
35.8199992105365 6.11127658738284
35.8399992100894 6.10719182765588
35.8599992096424 6.10738828667389
35.8799992091954 6.10631928815425
35.8999992087483 6.1290020998131
35.9199992083013 6.15551318872171
35.9399992078543 6.21666103189583
35.9599992074072 6.24913839880714
35.9799992069602 6.21283956185468
35.9999992065132 6.26743281468731
36.0199992060661 6.40483165243325
36.0399992056191 6.55375854043499
36.0599992051721 6.58517949456219
36.079999204725 6.65620637026986
36.099999204278 6.62295992976897
36.119999203831 6.60319065696453
36.1399992033839 6.56396988608993
36.1599992029369 6.70095383710087
36.1799992024899 6.79314225697763
36.1999992020428 6.80495754342258
36.2199992015958 6.72335985870635
36.2399992011487 6.74873470939548
36.2599992007017 6.75846290710764
36.2799992002547 6.76968601543967
36.2999991998076 6.61178085665156
36.3199991993606 6.53438077866008
36.3399991989136 6.39207322885649
36.3599991984665 6.34407651082763
36.3799991980195 6.27386725631986
36.3999991975725 6.21812173973567
36.4199991971254 6.17962914878237
36.4399991966784 6.14739590865059
36.4599991962314 6.0802457338973
36.4799991957843 5.98557904032981
36.4999991953373 5.96437119767625
36.5199991948903 5.97110202262044
36.5399991944432 5.98792069420971
36.5599991939962 5.90412342880389
36.5799991935492 5.84686024652212
36.5999991931021 5.82597081690186
36.6199991926551 5.84064713586395
36.6399991922081 5.72665414159893
36.659999191761 5.6353615865731
36.679999191314 5.54434785851668
36.6999991908669 5.57671036999619
36.7199991904199 5.60856979203197
36.7399991899729 5.67259840120808
36.7599991895258 5.66887013489601
36.7799991890788 5.64169081347871
36.7999991886318 5.61616296142153
36.8199991881847 5.61160556777963
36.8399991877377 5.66033154045201
36.8599991872907 5.65615650145761
36.8799991868436 5.62455074426946
36.8999991863966 5.58143929080471
36.9199991859496 5.55590661596191
36.9399991855025 5.47752737249746
36.9599991850555 5.44361872269392
36.9799991846085 5.47468979533212
36.9999991841614 5.49533017788481
37.0199991837144 5.50792629991934
37.0399991832674 5.51200090965267
37.0599991828203 5.58786013944417
37.0799991823733 5.61591561761029
37.0999991819263 5.57768404217689
37.1199991814792 5.55864658662409
37.1399991810322 5.52629114678136
37.1599991805851 5.49284826293623
37.1799991801381 5.4470576525076
37.1999991796911 5.38406396419769
37.219999179244 5.36146890246799
37.239999178797 5.43522745027404
37.25999917835 5.42957593371826
37.2799991779029 5.44143545492484
37.2999991774559 5.38944635524998
37.3199991770089 5.40598792055183
37.3399991765618 5.37614375425854
37.3599991761148 5.32617850199147
37.3799991756678 5.33366886390083
37.3999991752207 5.3629570943713
37.4199991747737 5.32022394155055
37.4399991743267 5.32101994599469
37.4599991738796 5.42291782151641
37.4799991734326 5.54100205952292
37.4999991729856 5.58354115937111
37.5199991725385 5.48008901854421
37.5399991720915 5.41380838264272
37.5599991716444 5.31595624836076
37.5799991711974 5.35274471961572
37.5999991707504 5.37173128998445
37.6199991703033 5.46019017975695
37.6399991698563 5.48607151416701
37.6599991694093 5.55207254901861
37.6799991689622 5.60318030409935
37.6999991685152 5.54819423520527
37.7199991680682 5.50315394605502
37.7399991676211 5.38322503491434
37.7599991671741 5.25673985929063
37.7799991667271 5.17519783415793
37.79999916628 5.19637749942841
37.819999165833 5.26990454753371
37.839999165386 5.33734144519435
37.8599991649389 5.34101105639955
37.8799991644919 5.37377682922941
37.8999991640449 5.32351507177811
37.9199991635978 5.25758909117654
37.9399991631508 5.25341084439924
37.9599991627038 5.23684020752926
37.9799991622567 5.23894007694671
37.9999991618097 5.20612048494713
38.0199991613626 5.23955909863359
38.0399991609156 5.2917438576899
38.0599991604686 5.34962605769747
38.0799991600215 5.32100024914992
38.0999991595745 5.24422224286891
38.1199991591275 5.1799150098357
38.1399991586804 5.17312679395712
38.1599991582334 5.19313911883804
38.1799991577864 5.22778785696547
38.1999991573393 5.31085221636556
38.2199991568923 5.34902776597251
38.2399991564453 5.33788963596011
38.2599991559982 5.3006898757772
38.2799991555512 5.30269495359887
38.2999991551042 5.27799340091545
38.3199991546571 5.28282960355073
38.3399991542101 5.31752547715304
38.3599991537631 5.29402518341115
38.379999153316 5.19823850947233
38.399999152869 5.13295669613709
38.419999152422 5.21272573489826
38.4399991519749 5.26081680673748
38.4599991515279 5.22080749602091
38.4799991510808 5.12752517604192
38.4999991506338 5.14909791147675
38.5199991501868 5.19458410364844
38.5399991497397 5.21228013693898
38.5599991492927 5.23500042202333
38.5799991488457 5.29621841191931
38.5999991483986 5.32380462071388
38.6199991479516 5.3100476004137
38.6399991475046 5.21543146179346
38.6599991470575 5.23460497483805
38.6799991466105 5.23433186629103
38.6999991461635 5.2155441869341
38.7199991457164 5.10419256980351
38.7399991452694 5.01417248062614
38.7599991448224 4.98661765479366
38.7799991443753 5.09664232271531
38.7999991439283 5.18537435696718
38.8199991434813 5.24537737819498
38.8399991430342 5.18457950037723
38.8599991425872 5.16165214518449
38.8799991421402 5.16431775683889
38.8999991416931 5.2011103652197
38.9199991412461 5.26038311415069
38.939999140799 5.27063266989938
38.959999140352 5.25532640336003
38.979999139905 5.19856346842677
38.9999991394579 5.21384453365315
39.0199991390109 5.20998396240488
39.0399991385639 5.18972042448795
39.0599991381168 5.10163660678774
39.0799991376698 5.09359011968919
39.0999991372228 5.06868682983139
39.1199991367757 5.05348044786794
39.1399991363287 5.09688275691056
39.1599991358817 5.18170956687232
39.1799991354346 5.25155773112985
39.1999991349876 5.21181610028949
39.2199991345406 5.13196174404315
39.2399991340935 5.13666080897777
39.2599991336465 5.13394260825633
39.2799991331995 5.23719094921187
39.2999991327524 5.29361662349593
39.3199991323054 5.34719569623227
39.3399991318583 5.27685030729168
39.3599991314113 5.21421019472132
39.3799991309643 5.04856104900542
39.3999991305172 4.97477305126143
39.4199991300702 4.91721789188383
39.4399991296232 4.98271380653058
39.4599991291761 5.05900996606769
39.4799991287291 5.05407191230588
39.4999991282821 5.03512577624051
39.519999127835 4.99862496878091
39.539999127388 5.07236775650257
39.559999126941 5.10390473649601
39.5799991264939 5.18428511065213
39.5999991260469 5.19719953949825
39.6199991255999 5.12792111182609
39.6399991251528 5.04778876635798
39.6599991247058 5.06139578196214
39.6799991242588 5.18507867535528
39.6999991238117 5.21070018988568
39.7199991233647 5.1955200730052
39.7399991229177 5.16444740970906
39.7599991224706 5.20050385315755
39.7799991220236 5.22717557430875
39.7999991215765 5.23284925682871
39.8199991211295 5.25334094303797
39.8399991206825 5.30746400761163
39.8599991202354 5.39004671220573
39.8799991197884 5.37068197673912
39.8999991193414 5.29922916895138
39.9199991188943 5.19603821862551
39.9399991184473 5.25485944236296
39.9599991180003 5.28243833629889
39.9799991175532 5.27898224084909
39.9999991171062 5.20434822775991
40.0199991166592 5.20210943374086
40.0399991162121 5.22636613994935
40.0599991157651 5.22775267817028
40.0799991153181 5.24265835536987
40.099999114871 5.18688815823011
40.119999114424 5.18046595319552
40.139999113977 5.16757969761897
40.1599991135299 5.21479788175891
40.1799991130829 5.24255645194357
40.1999991126359 5.23819623347805
40.2199991121888 5.2239466476151
40.2399991117418 5.18395960315842
40.2599991112947 5.20397864693084
40.2799991108477 5.20673741784627
40.2999991104007 5.17269020968443
40.3199991099536 5.13313763668147
40.3399991095066 5.11094557505294
40.3599991090596 5.09762442633742
40.3799991086125 5.11439924102612
40.3999991081655 5.06439535795235
40.4199991077185 5.06014763739101
40.4399991072714 5.11531046780086
40.4599991068244 5.31319885143531
40.4799991063774 5.36502231688412
40.4999991059303 5.32624213388652
40.5199991054833 5.18523656487094
40.5399991050363 5.16110456681069
40.5599991045892 5.11122832366606
40.5799991041422 5.15399816729391
40.5999991036952 5.1580872328598
40.6199991032481 5.2077708394699
40.6399991028011 5.13850233247059
40.6599991023541 5.05823439978765
40.679999101907 4.96484599759154
40.69999910146 4.99960373499234
40.7199991010129 5.15183851939296
40.7399991005659 5.24336028265226
40.7599991001189 5.2350258536142
40.7799990996718 5.14449523840263
40.7999990992248 5.09916147538258
40.8199990987778 5.10625358842255
40.8399990983307 5.15729083875534
40.8599990978837 5.2241896923322
40.8799990974367 5.26918327815912
40.8999990969896 5.19479912926804
40.9199990965426 5.08844065073937
40.9399990960956 5.05681085302894
40.9599990956485 5.07035300755471
40.9799990952015 5.16227564386617
40.9999990947545 5.2973267355781
41.0199990943074 5.34643551743919
41.0399990938604 5.31707710145626
41.0599990934134 5.18760068817548
41.0799990929663 5.19073315140248
41.0999990925193 5.2187900625471
41.1199990920722 5.20532431364188
41.1399990916252 5.16548465312741
41.1599990911782 5.15388993039696
41.1799990907311 5.19517066189336
41.1999990902841 5.21967506256547
41.2199990898371 5.19386473196513
41.23999908939 5.19063056611576
41.259999088943 5.17518393806974
41.279999088496 5.21028215748136
41.2999990880489 5.29417131784407
41.3199990876019 5.3796510164788
41.3399990871549 5.38849532793503
41.3599990867078 5.3528047908958
41.3799990862608 5.33085309831877
41.3999990858138 5.30740300184495
41.4199990853667 5.29296135011724
41.4399990849197 5.26912085033169
41.4599990844727 5.33403124778218
41.4799990840256 5.32111991528238
41.4999990835786 5.32665217550745
41.5199990831316 5.34000530903734
41.5399990826845 5.41303459472821
41.5599990822375 5.47944461603772
41.5799990817904 5.44366846428853
41.5999990813434 5.44009375543435
41.6199990808964 5.41739770107776
41.6399990804493 5.48575038720698
41.6599990800023 5.52670125473773
41.6799990795553 5.53992835949692
41.6999990791082 5.60065174244676
41.7199990786612 5.64565873089781
41.7399990782142 5.83435436214574
41.7599990777671 5.90336725049631
41.7799990773201 5.93136643850844
41.7999990768731 5.99527696923327
41.819999076426 6.07477816282167
41.839999075979 6.13939653694311
41.859999075532 6.13188101384075
41.8799990750849 6.23993798521159
41.8999990746379 6.41868949332981
41.9199990741909 6.56925048853285
41.9399990737438 6.58923607212425
41.9599990732968 6.55805066481375
41.9799990728498 6.58759275635899
41.9999990724027 6.64143528958076
42.0199990719557 6.72417914013192
42.0399990715086 6.7679612815133
42.0599990710616 6.82109623472743
42.0799990706146 6.78677111839874
42.0999990701675 6.65463729477682
42.1199990697205 6.53019899210953
42.1399990692735 6.46386421504629
42.1599990688264 6.45734038971748
42.1799990683794 6.39875707315324
42.1999990679324 6.20606290721074
42.2199990674853 6.02024415859495
42.2399990670383 5.86884015908534
42.2599990665913 5.85961524687564
42.2799990661442 5.75722608204406
42.2999990656972 5.64592075646053
42.3199990652502 5.54156863292645
42.3399990648031 5.4857744388263
42.3599990643561 5.41722234799019
42.3799990639091 5.40289633389587
42.399999063462 5.39424595206703
42.419999063015 5.43183036081868
42.4399990625679 5.34656352646729
42.4599990621209 5.32848328556013
42.4799990616739 5.32214023514826
42.4999990612268 5.3579604833494
42.5199990607798 5.38059038037305
42.5399990603328 5.24379906261379
42.5599990598857 5.19348892006566
42.5799990594387 5.18154953455217
42.5999990589917 5.20787462668267
42.6199990585446 5.1721444087581
42.6399990580976 5.11796447418793
42.6599990576506 5.06787212652135
42.6799990572035 5.05752971702374
42.6999990567565 5.02809952300981
42.7199990563095 5.02479855419263
42.7399990558624 5.01100780837791
42.7599990554154 5.09384497379869
42.7799990549684 5.20687443953442
42.7999990545213 5.25468399409692
42.8199990540743 5.17269675561644
42.8399990536273 5.10012969743064
42.8599990531802 5.02801515662538
42.8799990527332 5.03408010064517
42.8999990522861 4.96098291931244
42.9199990518391 4.97216893514337
42.9399990513921 5.01860987109274
42.959999050945 5.04181386698783
42.979999050498 5.06832259216819
42.999999050051 5.0007576260741
43.0199990496039 4.95352124920219
43.0399990491569 4.89379456681081
43.0599990487099 4.95247641531993
43.0799990482628 4.99804858631921
43.0999990478158 4.98299631996213
43.1199990473688 4.9520117598186
43.1399990469217 4.97522451030261
43.1599990464747 5.03820666397026
43.1799990460277 5.05095083794356
43.1999990455806 5.10230690342806
43.2199990451336 5.13912974396343
43.2399990446866 5.07841925730345
43.2599990442395 5.02146659073388
43.2799990437925 4.96395987766692
43.2999990433455 4.99138682568836
43.3199990428984 5.0006604459995
43.3399990424514 4.996023370568
43.3599990420043 5.0364915377313
43.3799990415573 5.03007573604429
43.3999990411103 5.04695743825091
43.4199990406632 4.98522328070942
43.4399990402162 4.97621390228876
43.4599990397692 4.92261283875076
43.4799990393221 4.92511247509889
43.4999990388751 4.86527155045839
43.5199990384281 4.87284167698148
43.539999037981 4.91593569737914
43.559999037534 5.02826692831895
43.579999037087 5.03390955879266
43.5999990366399 4.95718236417174
43.6199990361929 4.96410285050121
43.6399990357459 4.94370360421651
43.6599990352988 4.95541794446732
43.6799990348518 4.90793833656797
43.6999990344048 4.93223222612032
43.7199990339577 5.01773144234029
43.7399990335107 5.08804420492149
43.7599990330637 5.16624479936853
43.7799990326166 5.09414270349127
43.7999990321696 5.03190929865608
43.8199990317225 5.02146082520056
43.8399990312755 5.05967806112765
43.8599990308285 5.09103679601525
43.8799990303814 5.06988518635784
43.8999990299344 5.08155453981694
43.9199990294874 5.11745957297199
43.9399990290403 5.09706355822862
43.9599990285933 5.02788172144482
43.9799990281463 4.98665728929579
43.9999990276992 4.97243142263026
44.0199990272522 5.00221901176818
44.0399990268052 4.96816199749976
44.0599990263581 4.90054013444423
44.0799990259111 4.89372751738079
44.0999990254641 4.94725039035394
44.119999025017 5.00051885335159
44.13999902457 5.00109967785588
44.159999024123 5.01500709568764
44.1799990236759 5.05571904816035
44.1999990232289 5.07289636248346
44.2199990227818 5.04613075505364
44.2399990223348 4.99600413231967
44.2599990218878 4.9912594667781
44.2799990214407 5.02446612705192
44.2999990209937 5.13118456046347
44.3199990205467 5.21366878466607
44.3399990200996 5.24710290782838
44.3599990196526 5.27471827599065
44.3799990192056 5.30303763120201
44.3999990187585 5.40587027442753
44.4199990183115 5.45129417759869
44.4399990178645 5.46008682586315
44.4599990174174 5.58733815686249
44.4799990169704 5.64913009564948
44.4999990165234 5.70351832143085
44.5199990160763 5.76444261291532
44.5399990156293 5.93239265130794
44.5599990151823 6.03679995023605
44.5799990147352 6.01671457793812
44.5999990142882 5.95431708703114
44.6199990138412 5.95501924548517
44.6399990133941 5.98211216683115
44.6599990129471 6.00941214907538
44.6799990125 5.94373237884806
44.699999012053 5.83847521645622
44.719999011606 5.77560427440126
44.7399990111589 5.8004305340442
44.7599990107119 5.81792956737016
44.7799990102649 5.70138171497596
44.7999990098178 5.57770943549959
44.8199990093708 5.54858483914323
44.8399990089238 5.61048531711417
44.8599990084767 5.66489625070813
44.8799990080297 5.61408536826332
44.8999990075827 5.52527941706278
44.9199990071356 5.39619389561517
44.9399990066886 5.31632808754125
44.9599990062416 5.27411072473085
44.9799990057945 5.28929547519867
44.9999990053475 5.22937601075112
45.0199990049005 5.11491575440655
45.0399990044534 4.97709816111209
45.0599990040064 4.93686787992393
45.0799990035594 4.94700262330434
45.0999990031123 4.95380408641653
45.1199990026653 4.96513987890196
45.1399990022182 4.95386498618972
45.1599990017712 4.92697721410048
45.1799990013242 4.92335483224109
45.1999990008771 4.89736123000631
45.2199990004301 4.90622001204706
45.2399989999831 4.8713007179547
45.259998999536 4.87190162411237
45.279998999089 4.81008003408618
45.299998998642 4.77947269696677
45.3199989981949 4.80736571993521
45.3399989977479 4.86867213031324
45.3599989973009 4.8485878976842
45.3799989968538 4.81078652040238
45.3999989964068 4.7867603511288
45.4199989959598 4.78955913796171
45.4399989955127 4.77130924562218
45.4599989950657 4.76719819071614
45.4799989946187 4.81322367196974
45.4999989941716 4.94056369407272
45.5199989937246 4.99504900069367
45.5399989932776 5.05197571258447
45.5599989928305 4.93041810995205
45.5799989923835 4.82395304845777
45.5999989919364 4.67273687896718
45.6199989914894 4.64725721492797
45.6399989910424 4.72066511680824
45.6599989905953 4.76004066254308
45.6799989901483 4.78682604811639
45.6999989897013 4.75288811958028
45.7199989892542 4.73604929675277
45.7399989888072 4.76569862727721
45.7599989883602 4.80563734493581
45.7799989879131 4.83101933631532
45.7999989874661 4.78464950152542
45.8199989870191 4.78000169385879
45.839998986572 4.82345408479708
45.859998986125 4.85122069554633
45.879998985678 4.75227450691379
45.8999989852309 4.68912693978214
45.9199989847839 4.62961772128666
45.9399989843369 4.65471787641657
45.9599989838898 4.65635691517984
45.9799989834428 4.72204085327
45.9999989829957 4.76179124741497
46.0199989825487 4.79994485619298
46.0399989821017 4.78529717503058
46.0599989816546 4.81881042109427
46.0799989812076 4.79458780089368
46.0999989807606 4.7953611791562
46.1199989803135 4.77181184324537
46.1399989798665 4.73268030144917
46.1599989794195 4.75370459814729
46.1799989789724 4.71620084179155
46.1999989785254 4.74880100503195
46.2199989780784 4.66912766568845
46.2399989776313 4.61184347876767
46.2599989771843 4.59650165921195
46.2799989767373 4.67675925232539
46.2999989762902 4.74948495445622
46.3199989758432 4.68651634305223
46.3399989753962 4.63747946886536
46.3599989749491 4.652475322479
46.3799989745021 4.72439329336354
46.3999989740551 4.68551385089754
46.419998973608 4.61310048650341
46.439998973161 4.60316288537012
46.4599989727139 4.66941444713009
46.4799989722669 4.74908062199728
46.4999989718199 4.67955648982914
46.5199989713728 4.58834376804575
46.5399989709258 4.58120823639982
46.5599989704788 4.63609355051899
46.5799989700317 4.69246025661955
46.5999989695847 4.65670173526263
46.6199989691377 4.66853099097128
46.6399989686906 4.60136829999466
46.6599989682436 4.5725012110011
46.6799989677966 4.55065569232923
46.6999989673495 4.58969326661183
46.7199989669025 4.57836296978914
46.7399989664555 4.59985226019484
46.7599989660084 4.6187317942771
46.7799989655614 4.69653389704819
46.7999989651144 4.68655541105811
46.8199989646673 4.67359798519721
46.8399989642203 4.65093952044624
46.8599989637733 4.69050698578628
46.8799989633262 4.70231101195672
46.8999989628792 4.69266784368034
46.9199989624321 4.64463143229954
46.9399989619851 4.66688829672747
46.9599989615381 4.77001397251343
46.979998961091 4.77616942451089
46.999998960644 4.77818149366838
47.019998960197 4.68374641982234
47.0399989597499 4.68266068327171
47.0599989593029 4.64541699955287
47.0799989588559 4.63547017193247
47.0999989584088 4.65631824260206
47.1199989579618 4.6506466751742
47.1399989575148 4.66955568450632
47.1599989570677 4.69601021489618
47.1799989566207 4.72031115356386
47.1999989561737 4.73534152576763
47.2199989557266 4.69646880751342
47.2399989552796 4.73286421209069
47.2599989548326 4.66113010081863
47.2799989543855 4.64170885287699
47.2999989539385 4.58559609523887
47.3199989534914 4.68866183082812
47.3399989530444 4.69664691241491
47.3599989525974 4.71922549173312
47.3799989521503 4.6504599407877
47.3999989517033 4.67063181582328
47.4199989512563 4.69295975178554
47.4399989508092 4.65747613185927
47.4599989503622 4.65819876219905
47.4799989499152 4.61739426846123
47.4999989494681 4.64194201805316
47.5199989490211 4.66099904951769
47.5399989485741 4.65619873791895
47.559998948127 4.60834899229606
47.57999894768 4.47632067838433
47.599998947233 4.45712606880086
47.6199989467859 4.47066627849849
47.6399989463389 4.50793907717294
47.6599989458919 4.57717746366502
47.6799989454448 4.58804227198735
47.6999989449978 4.57206846361258
47.7199989445508 4.49019401647182
47.7399989441037 4.43314759116186
47.7599989436567 4.43305066513802
47.7799989432096 4.44254903506358
47.7999989427626 4.53533829095298
47.8199989423156 4.59063545287156
47.8399989418685 4.5780730626751
47.8599989414215 4.59501604722022
47.8799989409745 4.66846234976512
47.8999989405274 4.6924018987689
47.9199989400804 4.56785881090083
47.9399989396334 4.56340587681493
47.9599989391863 4.60132260082557
47.9799989387393 4.68499672804748
47.9999989382923 4.65479974710444
48.0199989378452 4.56960711890363
48.0399989373982 4.52990408815579
48.0599989369512 4.43895531686102
48.0799989365041 4.49705767780027
48.0999989360571 4.53327942392311
48.1199989356101 4.56844749887136
48.139998935163 4.52345247835002
48.159998934716 4.49027976766428
48.179998934269 4.46353440521634
48.1999989338219 4.52365498019435
48.2199989333749 4.51121467889264
48.2399989329278 4.5306448049951
48.2599989324808 4.58198613830452
48.2799989320338 4.6295815068533
48.2999989315867 4.67553230067924
48.3199989311397 4.61312252243
48.3399989306927 4.53997444797318
48.3599989302456 4.52291621547202
48.3799989297986 4.59734061436104
48.3999989293516 4.65638023280393
48.4199989289045 4.62871105927468
48.4399989284575 4.67484200170045
48.4599989280105 4.66558193072176
48.4799989275634 4.65089273826953
48.4999989271164 4.50004539301281
48.5199989266694 4.53382487761068
48.5399989262223 4.58853528298923
48.5599989257753 4.58044202217204
48.5799989253283 4.61188966546945
48.5999989248812 4.59591920664111
48.6199989244342 4.58519878083003
48.6399989239872 4.51209199467137
48.6599989235401 4.50865320261495
48.6799989230931 4.60348539787476
48.699998922646 4.60884640503322
48.719998922199 4.60144656982749
48.739998921752 4.56825466461428
48.7599989213049 4.55804796213256
48.7799989208579 4.51414557273474
48.7999989204109 4.48140286741278
48.8199989199638 4.47327504606817
48.8399989195168 4.47130346047942
48.8599989190698 4.47398403897351
48.8799989186227 4.5121981037258
48.8999989181757 4.55511778050376
48.9199989177287 4.50076077409216
48.9399989172816 4.45576060172089
48.9599989168346 4.46324474210062
48.9799989163876 4.49374637873754
48.9999989159405 4.44266901493938
49.0199989154935 4.42104943323099
49.0399989150465 4.4621910473333
49.0599989145994 4.4832878737795
49.0799989141524 4.50090709970846
49.0999989137053 4.43517832645006
49.1199989132583 4.46148359602538
49.1399989128113 4.39333094790878
49.1599989123642 4.44915593553229
49.1799989119172 4.46614782502595
49.1999989114702 4.5221799740529
49.2199989110231 4.51625207539622
49.2399989105761 4.53177739230455
49.2599989101291 4.52392655507682
49.279998909682 4.51150884629829
49.299998909235 4.4452894670726
49.319998908788 4.42441710782986
49.3399989083409 4.40730647055464
49.3599989078939 4.42462802686836
49.3799989074469 4.41958109175108
49.3999989069998 4.45200700055347
49.4199989065528 4.45217072382202
49.4399989061058 4.42980586135748
49.4599989056587 4.40402818206796
49.4799989052117 4.40667184629164
49.4999989047647 4.37219900018174
49.5199989043176 4.39422735744309
49.5399989038706 4.43969288130032
49.5599989034235 4.46561500006395
49.5799989029765 4.41191321286776
49.5999989025295 4.36814524496222
49.6199989020824 4.41247909847006
49.6399989016354 4.44585606207522
49.6599989011884 4.48668030646937
49.6799989007413 4.43732249533542
49.6999989002943 4.40300893834279
49.7199988998473 4.35067273567442
49.7399988994002 4.4117079338007
49.7599988989532 4.47148560265987
49.7799988985062 4.52194058927549
49.7999988980591 4.56963600319988
49.8199988976121 4.52703353155997
49.8399988971651 4.52196168572578
49.859998896718 4.4977181096332
49.879998896271 4.50644861035019
49.899998895824 4.45706542990821
49.9199988953769 4.3765686381625
49.9399988949299 4.36157778592542
49.9599988944829 4.37035030403798
49.9799988940358 4.39396030906731
49.9999988935888 4.37249222775056
50.0199988931417 4.41743214696903
50.0399988926947 4.38437935807974
50.0599988922477 4.38068026009354
50.0799988918006 4.33621054039906
50.0999988913536 4.34226861983535
50.1199988909066 4.35993994657691
50.1399988904595 4.45362396850732
50.1599988900125 4.54065670345694
50.1799988895655 4.59957947033397
50.1999988891184 4.52263584519963
50.2199988886714 4.42104493506021
50.2399988882244 4.40170968867409
50.2599988877773 4.39007795451579
50.2799988873303 4.39186007108193
50.2999988868833 4.31557039373582
50.3199988864362 4.25320902581521
50.3399988859892 4.19924398140587
50.3599988855422 4.27693807677215
50.3799988850951 4.3311239424848
50.3999988846481 4.39645172035399
50.4199988842011 4.39130011293866
50.439998883754 4.4819440895261
50.459998883307 4.47040194007764
50.4799988828599 4.4795873761729
50.4999988824129 4.45603316569144
50.5199988819659 4.47410097828541
50.5399988815188 4.45046771808249
50.5599988810718 4.37337407993559
50.5799988806248 4.32565614261301
50.5999988801777 4.28465904113259
50.6199988797307 4.25720447624197
50.6399988792837 4.32202577714446
50.6599988788366 4.38890725974903
50.6799988783896 4.45510586526136
50.6999988779426 4.46797024260188
50.7199988774955 4.43774447931762
50.7399988770485 4.47099637607663
50.7599988766015 4.50289110720563
50.7799988761544 4.53181471208401
50.7999988757074 4.43164023983488
50.8199988752604 4.36440611727232
50.8399988748133 4.3885870973583
50.8599988743663 4.39921792127825
50.8799988739192 4.36628377922841
50.8999988734722 4.39231133572111
50.9199988730252 4.41629407650987
50.9399988725781 4.50026841085752
50.9599988721311 4.41467175032806
50.9799988716841 4.45436717550482
50.999998871237 4.40181318557714
51.01999887079 4.37759936402632
51.039998870343 4.26215129100743
51.0599988698959 4.21008359129533
51.0799988694489 4.2886800398133
51.0999988690019 4.39820934897682
51.1199988685548 4.428347849116
51.1399988681078 4.34376379145003
51.1599988676608 4.31596038366717
51.1799988672137 4.3296541162859
51.1999988667667 4.37051142582914
51.2199988663197 4.32720087820641
51.2399988658726 4.33284924383468
51.2599988654256 4.30780340902598
51.2799988649786 4.33882783162857
51.2999988645315 4.28325604358805
51.3199988640845 4.25293124363463
51.3399988636374 4.28783166719151
51.3599988631904 4.35866165185032
51.3799988627434 4.39561570780544
51.3999988622963 4.37908396595407
51.4199988618493 4.36899248341426
51.4399988614023 4.39630844397461
51.4599988609552 4.39826619215307
51.4799988605082 4.46822560951444
51.4999988600612 4.47570853496293
51.5199988596141 4.4790120854685
51.5399988591671 4.43257042410034
51.5599988587201 4.39665617156148
51.579998858273 4.39630052167143
51.599998857826 4.46403497120472
51.619998857379 4.50343056465682
51.6399988569319 4.48526911397914
51.6599988564849 4.48861464505433
51.6799988560379 4.53258169179613
51.6999988555908 4.52613711133468
51.7199988551438 4.49636006449466
51.7399988546968 4.50598269167279
51.7599988542497 4.56302751020844
51.7799988538027 4.63084302452762
51.7999988533556 4.65060085570027
51.8199988529086 4.69124416035448
51.8399988524616 4.69353304923285
51.8599988520145 4.69971192170264
51.8799988515675 4.6775144680995
51.8999988511205 4.67898879184848
51.9199988506734 4.67212127848429
51.9399988502264 4.61159864625855
51.9599988497794 4.4607122513521
51.9799988493323 4.44116279533185
51.9999988488853 4.50449732246512
52.0199988484383 4.54415454394902
52.0399988479912 4.54905159940921
52.0599988475442 4.50751278865839
52.0799988470972 4.48444948262615
52.0999988466501 4.4839218504973
52.1199988462031 4.46603586206317
52.1399988457561 4.52324896933751
52.159998845309 4.46500308417145
52.179998844862 4.45061609338721
52.1999988444149 4.39373784550225
52.2199988439679 4.36042983380896
52.2399988435209 4.37831643189799
52.2599988430738 4.33575082621248
52.2799988426268 4.41764133843522
52.2999988421798 4.41585552220929
52.3199988417327 4.410919723763
52.3399988412857 4.39805157960117
52.3599988408387 4.44924069209422
52.3799988403916 4.51856297079873
52.3999988399446 4.48178287325409
52.4199988394976 4.40335368001961
52.4399988390505 4.3398488341274
52.4599988386035 4.33963903125748
52.4799988381565 4.38452824266574
52.4999988377094 4.37308075505876
52.5199988372624 4.39439585844198
52.5399988368154 4.34969268543431
52.5599988363683 4.37730292267178
52.5799988359213 4.34542430708276
52.5999988354743 4.38214158902436
52.6199988350272 4.36420183887931
52.6399988345802 4.28844937894506
52.6599988341331 4.25641408304826
52.6799988336861 4.25162680807689
52.6999988332391 4.27211069000396
52.719998832792 4.30090653988692
52.739998832345 4.29987928414174
52.759998831898 4.39758309796338
52.7799988314509 4.38226913013976
52.7999988310039 4.32091237950499
52.8199988305569 4.24212640673877
52.8399988301098 4.19765586666372
52.8599988296628 4.21833495741086
52.8799988292158 4.18612551480065
52.8999988287687 4.17810710619596
52.9199988283217 4.18930406855592
52.9399988278747 4.21698568418161
52.9599988274276 4.26703312971734
52.9799988269806 4.23205202984073
52.9999988265336 4.16912909977644
53.0199988260865 4.20285571123425
53.0399988256395 4.21888202746196
53.0599988251925 4.26637383724502
53.0799988247454 4.24169778218201
53.0999988242984 4.28083114633087
53.1199988238513 4.38037151723496
53.1399988234043 4.39930390475012
53.1599988229573 4.41713892038967
53.1799988225102 4.37230440123087
53.1999988220632 4.39163472536557
53.2199988216162 4.41475418436844
53.2399988211691 4.41147565274907
53.2599988207221 4.36903020618579
53.2799988202751 4.28728205058114
53.299998819828 4.29222451132975
53.319998819381 4.32079954873217
53.339998818934 4.33351338701268
53.3599988184869 4.35684577574085
53.3799988180399 4.30523629804219
53.3999988175929 4.31679632169091
53.4199988171458 4.26875416581964
53.4399988166988 4.27646469398214
53.4599988162518 4.2630539601718
53.4799988158047 4.25114944961141
53.4999988153577 4.29293107552798
53.5199988149107 4.38407815537248
53.5399988144636 4.42901781178086
53.5599988140166 4.39235078805963
53.5799988135695 4.2921431758195
53.5999988131225 4.18251304216103
53.6199988126755 4.19223570255629
53.6399988122284 4.22569475217045
53.6599988117814 4.33324035552173
53.6799988113344 4.31715223305984
53.6999988108873 4.34432715874439
53.7199988104403 4.26855593551259
53.7399988099933 4.24398138518815
53.7599988095462 4.23573562235723
53.7799988090992 4.34053763017306
53.7999988086522 4.29545283077336
53.8199988082051 4.22042779875725
53.8399988077581 4.13784209740002
53.8599988073111 4.20078433046539
53.879998806864 4.22853983358348
53.899998806417 4.1991225555709
53.91999880597 4.18930189219278
53.9399988055229 4.2082597100283
53.9599988050759 4.25819676335858
53.9799988046288 4.2409394582687
53.9999988041818 4.24655443225086
54.0199988037348 4.28068062169111
54.0399988032877 4.33900387129799
54.0599988028407 4.38349095001535
54.0799988023937 4.40830946554631
54.0999988019466 4.3811186141022
54.1199988014996 4.37115566068535
54.1399988010526 4.37372128667321
54.1599988006055 4.39864843366789
54.1799988001585 4.3805287994628
54.1999987997115 4.36135742322147
54.2199987992644 4.35524707263185
54.2399987988174 4.33583370596511
54.2599987983704 4.32756140075034
54.2799987979233 4.317766179359
54.2999987974763 4.32843090718792
54.3199987970293 4.35956485397589
54.3399987965822 4.35157518678912
54.3599987961352 4.35241103027846
54.3799987956882 4.3715143529791
54.3999987952411 4.4316605079582
54.4199987947941 4.36541443488018
54.439998794347 4.27857316072353
54.4599987939 4.28205560109868
54.479998793453 4.38564661635165
54.4999987930059 4.41377648637873
54.5199987925589 4.38303885750301
54.5399987921119 4.34326520869107
54.5599987916648 4.28413404506052
54.5799987912178 4.23830996116225
54.5999987907708 4.23327227375433
54.6199987903237 4.31383344708642
54.6399987898767 4.34828807191657
54.6599987894297 4.33251643771972
54.6799987889826 4.28412096943024
54.6999987885356 4.32201326067049
54.7199987880886 4.30871698903016
54.7399987876415 4.27873832191044
54.7599987871945 4.25043459932959
54.7799987867475 4.25823969951576
54.7999987863004 4.2622983559016
54.8199987858534 4.20998159186285
54.8399987854064 4.22686763226059
54.8599987849593 4.24418849984953
54.8799987845123 4.2595496209177
54.8999987840652 4.28473614833099
54.9199987836182 4.30869955235514
54.9399987831712 4.34074417828417
54.9599987827241 4.36203385767356
54.9799987822771 4.37000392351569
54.9999987818301 4.36957493311722
55.019998781383 4.30980599285457
55.039998780936 4.29041132404913
55.059998780489 4.29542908027166
55.0799987800419 4.33531241056819
55.0999987795949 4.32994085702436
55.1199987791479 4.2823436040475
55.1399987787008 4.19019759703398
55.1599987782538 4.16931333088875
55.1799987778068 4.17756860701543
55.1999987773597 4.21440094564411
55.2199987769127 4.256935524231
55.2399987764657 4.29971437721851
55.2599987760186 4.31575599106869
55.2799987755716 4.28685659670164
55.2999987751246 4.28150403905365
55.3199987746775 4.29538253367897
55.3399987742305 4.28522353639048
55.3599987737834 4.26073770726809
55.3799987733364 4.22477518874417
55.3999987728894 4.25080724533646
55.4199987724423 4.26334875635032
55.4399987719953 4.33491441129916
55.4599987715483 4.34810055008536
55.4799987711012 4.3329378526352
55.4999987706542 4.27401389295381
55.5199987702072 4.45591816095879
55.5399987697601 4.61222057668606
55.5599987693131 4.8014675267915
55.5799987688661 4.72744530889895
55.599998768419 4.68096169705291
55.619998767972 4.62524500211104
55.639998767525 4.67618879886385
55.6599987670779 4.7004548899136
55.6799987666309 4.68252128549539
55.6999987661839 4.68818877032479
55.7199987657368 4.59939117420019
55.7399987652898 4.526463495054
55.7599987648427 4.35439976069497
55.7799987643957 4.39436533119088
55.7999987639487 4.3935833078467
55.8199987635016 4.49066755508108
55.8399987630546 4.52293274700907
55.8599987626076 4.53095427939694
55.8799987621605 4.60452819977071
55.8999987617135 4.70047101920294
55.9199987612665 4.8030470289489
55.9399987608194 4.74899962972838
55.9599987603724 4.64389750454844
55.9799987599254 4.55182536018449
55.9999987594783 4.57120831813731
56.0199987590313 4.60871226062532
56.0399987585843 4.78889587756747
56.0599987581372 4.8566756828964
56.0799987576902 4.8899769581378
56.0999987572432 4.8621451728521
56.1199987567961 4.84221559353699
56.1399987563491 4.78917431885489
56.1599987559021 4.66379228673491
56.179998755455 4.5140700699837
56.199998755008 4.57686151139303
56.2199987545609 4.71577825234991
56.2399987541139 4.93102086391123
56.2599987536669 5.05307983349823
56.2799987532198 5.09757196614432
56.2999987527728 5.0443639300912
56.3199987523258 4.89442126111166
56.3399987518787 4.83375215201889
56.3599987514317 4.8033826271305
56.3799987509847 4.71410160096359
56.3999987505376 4.56398679218668
56.4199987500906 4.78040334882883
56.4399987496436 5.138547939088
56.4599987491965 5.30000635330178
56.4799987487495 5.1932711325135
56.4999987483025 5.00650844606348
56.5199987478554 4.97203730648714
56.5399987474084 4.9198333277745
56.5599987469614 4.98278355874658
56.5799987465143 5.12599788537813
56.5999987460673 5.05137850249029
56.6199987456203 4.7849429397
56.6399987451732 4.45783500208778
56.6599987447262 4.55330793049467
56.6799987442791 4.99743278726029
56.6999987438321 5.3880850051362
56.7199987433851 5.63640658255824
56.739998742938 5.62482209896735
56.759998742491 5.5431521093518
56.779998742044 5.43718186338787
56.7999987415969 5.01166563367197
56.8199987411499 5.43754612500988
56.8399987407029 6.09418259122987
56.8599987402558 7.61156108023375
56.8799987398088 7.45555324941524
56.8999987393618 6.44684204567192
