'Id: "" Comment: "Integrate frame 2018_8-7 FAGACs_2p5PEAI001.gfrmwith cursor Full Frame Cursor #6" Operator: "MAF user" Anode: "Cu" Scantype: "TwoTheta" TimePerStep: "90" 
10.7399997711182 6.43091898704344
10.7599997706711 6.20995328273579
10.7799997702241 6.19684115533292
10.7999997697771 6.20410775406615
10.81999976933 5.75118672291882
10.839999768883 5.57830954768634
10.859999768436 5.52276756049256
10.8799997679889 5.25087128865972
10.8999997675419 5.1683184333842
10.9199997670949 5.09240180809013
10.9399997666478 5.21376948624902
10.9599997662008 5.13658230959468
10.9799997657537 5.14779551149151
10.9999997653067 5.2559344285195
11.0199997648597 5.23798974410083
11.0399997644126 5.12859609957982
11.0599997639656 4.942621642189
11.0799997635186 4.80440255558462
11.0999997630715 4.87824274298225
11.1199997626245 4.89868951101904
11.1399997621775 5.04549000801877
11.1599997617304 5.00832315920237
11.1799997612834 5.01137857985884
11.1999997608364 4.93792025021775
11.2199997603893 4.89934382576905
11.2399997599423 4.95800979981653
11.2599997594953 4.96938633106668
11.2799997590482 4.92350255517522
11.2999997586012 4.84083529443823
11.3199997581542 4.94205722827976
11.3399997577071 4.99430102016633
11.3599997572601 4.94826222379734
11.379999756813 4.89139985629462
11.399999756366 4.8420556752628
11.419999755919 4.87392465770449
11.4399997554719 4.88475464019548
11.4599997550249 4.89141179460511
11.4799997545779 4.84597077430604
11.4999997541308 4.81081333385575
11.5199997536838 4.87046286271305
11.5399997532368 4.89818762844086
11.5599997527897 4.80045098917319
11.5799997523427 4.75325459124428
11.5999997518957 4.79749147330865
11.6199997514486 4.83541022584768
11.6399997510016 4.77982486934523
11.6599997505546 4.6701808397981
11.6799997501075 4.68735775470451
11.6999997496605 4.75889786420976
11.7199997492135 4.78333711060994
11.7399997487664 4.79474631046626
11.7599997483194 4.72286072883849
11.7799997478724 4.77836809819584
11.7999997474253 4.75172234887408
11.8199997469783 4.82078553604669
11.8399997465312 4.89438786443498
11.8599997460842 4.98984571979604
11.8799997456372 5.01002047466123
11.8999997451901 4.90535428193711
11.9199997447431 4.84085556028125
11.9399997442961 4.72416109399548
11.959999743849 4.74668777220804
11.979999743402 4.83640259614399
11.999999742955 4.93169602721273
12.0199997425079 4.96534546078496
12.0399997420609 4.84741600353205
12.0599997416139 4.76851529190878
12.0799997411668 4.6869352845512
12.0999997407198 4.68174341809717
12.1199997402728 4.75509378608173
12.1399997398257 4.78916340030474
12.1599997393787 4.84148257939024
12.1799997389317 4.89533994259992
12.1999997384846 5.00628007404721
12.2199997380376 5.14747952658649
12.2399997375906 5.09031669718961
12.2599997371435 5.0544804154939
12.2799997366965 4.87535135110924
12.2999997362494 4.89717917605724
12.3199997358024 4.8491450804061
12.3399997353554 4.82925014712356
12.3599997349083 4.77035819931751
12.3799997344613 4.71859954779977
12.3999997340143 4.75696492356146
12.4199997335672 4.78568167688595
12.4399997331202 4.81505914693479
12.4599997326732 4.83079291111366
12.4799997322261 4.87080501514392
12.4999997317791 4.87817224206993
12.5199997313321 4.91820867327688
12.539999730885 4.88075300843457
12.559999730438 4.91201152907706
12.579999729991 4.89404731333125
12.5999997295439 4.93065545431407
12.6199997290969 4.92163276683123
12.6399997286499 4.81212886167376
12.6599997282028 4.69605061297701
12.6799997277558 4.65400044057671
12.6999997273088 4.7052045540098
12.7199997268617 4.79907346575882
12.7399997264147 4.87159528154777
12.7599997259676 4.8519771448593
12.7799997255206 4.83158365366703
12.7999997250736 4.84292414183201
12.8199997246265 4.84306906391108
12.8399997241795 4.8094067304709
12.8599997237325 4.75555484104442
12.8799997232854 4.72120342862536
12.8999997228384 4.69080883517618
12.9199997223914 4.74931835810327
12.9399997219443 4.83742943170291
12.9599997214973 4.89902919123675
12.9799997210503 4.88660873558998
12.9999997206032 4.84859317185293
13.0199997201562 4.84587470273316
13.0399997197092 4.82643078074817
13.0599997192621 4.87660735884277
13.0799997188151 4.90334987226138
13.0999997183681 4.89363333379131
13.119999717921 4.8654594051006
13.139999717474 4.81989744007581
13.1599997170269 4.80877489243094
13.1799997165799 4.80800564059429
13.1999997161329 4.87030125149455
13.2199997156858 4.93413387295089
13.2399997152388 4.95419187302769
13.2599997147918 4.85933557039823
13.2799997143447 4.82550056303147
13.2999997138977 4.82127928387225
13.3199997134507 4.88986049277713
13.3399997130036 4.90146942754319
13.3599997125566 4.92434493347564
13.3799997121096 4.92675829113918
13.3999997116625 4.96290706767291
13.4199997112155 4.93496354723666
13.4399997107685 4.86278607015366
13.4599997103214 4.85080142668112
13.4799997098744 4.9316848842215
13.4999997094274 4.98217002761237
13.5199997089803 4.98907072579777
13.5399997085333 5.04460987568891
13.5599997080863 5.12613994571353
13.5799997076392 5.13657603698598
13.5999997071922 5.10711120219036
13.6199997067451 5.07985797753933
13.6399997062981 5.08947661129338
13.6599997058511 5.03437204209713
13.679999705404 4.98711265161348
13.699999704957 4.9183989336803
13.71999970451 4.90704096246666
13.7399997040629 4.95485785707263
13.7599997036159 5.02099774370349
13.7799997031689 5.08083444939279
13.7999997027218 5.04245400801932
13.8199997022748 5.0756393738711
13.8399997018278 5.05881995940725
13.8599997013807 5.11581728158749
13.8799997009337 5.11504268532742
13.8999997004867 5.11309042032964
13.9199997000396 5.11682081156504
13.9399996995926 5.18288701137623
13.9599996991456 5.21869322013054
13.9799996986985 5.21757470672464
13.9999996982515 5.17754214007339
14.0199996978045 5.17497323340092
14.0399996973574 5.24085047345827
14.0599996969104 5.27477957990176
14.0799996964633 5.28432683948604
14.0999996960163 5.27955881405138
14.1199996955693 5.25966924309586
14.1399996951222 5.28079565551959
14.1599996946752 5.31337673480204
14.1799996942282 5.37616650998815
14.1999996937811 5.35029471171097
14.2199996933341 5.28369444748115
14.2399996928871 5.2340543018281
14.25999969244 5.23169229886408
14.279999691993 5.30281116376142
14.299999691546 5.41345935413701
14.3199996910989 5.51887209695947
14.3399996906519 5.49038453969841
14.3599996902049 5.56776893401077
14.3799996897578 5.63017567825248
14.3999996893108 5.74719206479278
14.4199996888638 5.82324154035849
14.4399996884167 5.94402474605742
14.4599996879697 6.07780112849263
14.4799996875226 6.24720992005263
14.4999996870756 6.40921692267313
14.5199996866286 6.68170933928555
14.5399996861815 6.88379741519842
14.5599996857345 7.16612200775128
14.5799996852875 7.57141693642002
14.5999996848404 7.9197430369253
14.6199996843934 8.19494534839969
14.6399996839464 8.45354069244272
14.6599996834993 8.80111272540267
14.6799996830523 9.22850513772463
14.6999996826053 9.81422712558614
14.7199996821582 10.3315651215753
14.7399996817112 10.6490207106803
14.7599996812642 10.8662639601874
14.7799996808171 10.9820556165176
14.7999996803701 11.0902302543327
14.8199996799231 11.0098786233534
14.839999679476 10.7560071128064
14.859999679029 10.4151703486718
14.879999678582 9.85890910039992
14.8999996781349 9.36744839215513
14.9199996776879 9.01930189625179
14.9399996772408 8.69357689112353
14.9599996767938 8.30818649869403
14.9799996763468 7.83027214527328
14.9999996758997 7.36279104944471
15.0199996754527 7.04945519073908
15.0399996750057 6.83219335432055
15.0599996745586 6.55215452907936
15.0799996741116 6.2067957089032
15.0999996736646 5.97271514579187
15.1199996732175 5.81070137694467
15.1399996727705 5.78124081239782
15.1599996723235 5.73696549620864
15.1799996718764 5.65971865694861
15.1999996714294 5.51790184621412
15.2199996709824 5.45567637902968
15.2399996705353 5.4340180526714
15.2599996700883 5.4025024365602
15.2799996696413 5.28323220355171
15.2999996691942 5.2365572292719
15.3199996687472 5.2340269670774
15.3399996683002 5.21749963263229
15.3599996678531 5.10213154092099
15.3799996674061 5.08450719216257
15.399999666959 5.11139034015024
15.419999666512 5.11945599031577
15.439999666065 5.09634672624656
15.4599996656179 5.10789621428256
15.4799996651709 5.12897404609429
15.4999996647239 5.1424295487083
15.5199996642768 5.14225224458936
15.5399996638298 5.095202709473
15.5599996633828 5.08145353514555
15.5799996629357 5.10499990741872
15.5999996624887 5.13258591650507
15.6199996620417 5.12276247284638
15.6399996615946 5.10401280706775
15.6599996611476 5.08096230283243
15.6799996607006 5.04350557583277
15.6999996602535 4.99348812753029
15.7199996598065 4.94933926527848
15.7399996593595 4.92811174301605
15.7599996589124 4.9534122196735
15.7799996584654 4.96545989951762
15.7999996580184 4.9624716915841
15.8199996575713 4.90695826344199
15.8399996571243 4.91762446615417
15.8599996566772 4.92743756992162
15.8799996562302 4.97031040239851
15.8999996557832 4.90030220111334
15.9199996553361 4.8762266162834
15.9399996548891 4.87650877932115
15.9599996544421 4.92421329215681
15.979999653995 4.9636391520152
15.999999653548 4.95761421863227
16.019999653101 4.91737206461792
16.0399996526539 4.86672794694051
16.0599996522069 4.90788367611464
16.0799996517599 5.00403016246541
16.0999996513128 5.02793584327442
16.1199996508658 5.0156324446437
16.1399996504188 4.9780161326073
16.1599996499717 4.98593439294081
16.1799996495247 4.99530251030946
16.1999996490777 4.97119200185725
16.2199996486306 4.96968647226301
16.2399996481836 4.94017152579266
16.2599996477365 4.93321081297769
16.2799996472895 4.94549323188794
16.2999996468425 4.95198645838239
16.3199996463954 4.97728897795711
16.3399996459484 5.00987733358291
16.3599996455014 5.08262159535464
16.3799996450543 5.08924143753392
16.3999996446073 5.06497693428231
16.4199996441603 5.04441492701084
16.4399996437132 5.01124989626178
16.4599996432662 5.04492669050617
16.4799996428192 5.07449257590559
16.4999996423721 5.05252238509206
16.5199996419251 4.9941431948738
16.5399996414781 4.99694796288262
16.559999641031 5.08107171620126
16.579999640584 5.16003079489928
16.599999640137 5.11125187725236
16.6199996396899 5.02000908205049
16.6399996392429 5.00706759123032
16.6599996387959 5.05692079886197
16.6799996383488 5.09475945064149
16.6999996379018 5.11640577130879
16.7199996374547 5.10507706988347
16.7399996370077 5.10969461597493
16.7599996365607 5.16220398688908
16.7799996361136 5.22622445969691
16.7999996356666 5.19444969423398
16.8199996352196 5.13676514732209
16.8399996347725 5.09224335128718
16.8599996343255 5.14455463575444
16.8799996338785 5.14274043062224
16.8999996334314 5.10922632537058
16.9199996329844 5.00389487901566
16.9399996325374 4.95329277377551
16.9599996320903 4.96101572301765
16.9799996316433 4.98942450995799
16.9999996311963 4.97500616355232
17.0199996307492 4.97617121910903
17.0399996303022 4.99515692620804
17.0599996298552 5.02438307060487
17.0799996294081 5.02908498595645
17.0999996289611 5.05501880599431
17.1199996285141 5.08927222463043
17.139999628067 5.09367214335527
17.15999962762 5.07987109751199
17.1799996271729 5.06197382216896
17.1999996267259 5.08973917939749
17.2199996262789 5.12694318198733
17.2399996258318 5.14071897342344
17.2599996253848 5.07937997353792
17.2799996249378 5.06205220442141
17.2999996244907 5.07516263173845
17.3199996240437 5.12779063336344
17.3399996235967 5.14908438470668
17.3599996231496 5.14975472399017
17.3799996227026 5.11886833117951
17.3999996222556 5.12477245036673
17.4199996218085 5.16904846384996
17.4399996213615 5.21494470509979
17.4599996209145 5.20811362965641
17.4799996204674 5.15446197716719
17.4999996200204 5.08648430330373
17.5199996195734 5.04930640661528
17.5399996191263 5.11798577213086
17.5599996186793 5.20277996735809
17.5799996182323 5.2555735378376
17.5999996177852 5.22754381926498
17.6199996173382 5.24552068224832
17.6399996168911 5.22677712943724
17.6599996164441 5.24818434658714
17.6799996159971 5.25451593875696
17.69999961555 5.27967419486878
17.719999615103 5.2781774722776
17.739999614656 5.26343574984213
17.7599996142089 5.22331827603358
17.7799996137619 5.20753318454016
17.7999996133149 5.2621375365254
17.8199996128678 5.29107528141186
17.8399996124208 5.29813039827202
17.8599996119738 5.29957653348792
17.8799996115267 5.33404591536236
17.8999996110797 5.35029651995198
17.9199996106327 5.33373270780925
17.9399996101856 5.28492039934839
17.9599996097386 5.29631918707742
17.9799996092916 5.35207372630672
17.9999996088445 5.3822634718722
18.0199996083975 5.34490326437252
18.0399996079504 5.29868875944317
18.0599996075034 5.27810277345845
18.0799996070564 5.30483772462533
18.0999996066093 5.34010666089061
18.1199996061623 5.3463403491493
18.1399996057153 5.30518641211474
18.1599996052682 5.30954960884217
18.1799996048212 5.30339095846061
18.1999996043742 5.30353316764973
18.2199996039271 5.34801218748531
18.2399996034801 5.42605831666787
18.2599996030331 5.439871002889
18.279999602586 5.43192341532101
18.299999602139 5.3998825741753
18.319999601692 5.36589974112477
18.3399996012449 5.37443233604445
18.3599996007979 5.41102103985251
18.3799996003509 5.40892639914719
18.3999995999038 5.38633691538722
18.4199995994568 5.39625007219918
18.4399995990098 5.39520254104921
18.4599995985627 5.35507864644044
18.4799995981157 5.39040798007047
18.4999995976686 5.44520643360849
18.5199995972216 5.46708104815057
18.5399995967746 5.49071848183497
18.5599995963275 5.52272678405848
18.5799995958805 5.51654333940231
18.5999995954335 5.49708835078867
18.6199995949864 5.48440982357608
18.6399995945394 5.49955196562031
18.6599995940924 5.51571141024605
18.6799995936453 5.5499528709558
18.6999995931983 5.5295151938924
18.7199995927513 5.51368995122022
18.7399995923042 5.50677976629605
18.7599995918572 5.5220654433936
18.7799995914102 5.5367303609866
18.7999995909631 5.56896939033238
18.8199995905161 5.57707317979401
18.8399995900691 5.57992739186502
18.859999589622 5.53371143781242
18.879999589175 5.51344528526106
18.899999588728 5.45629583933724
18.9199995882809 5.44703259874883
18.9399995878339 5.43263187499069
18.9599995873868 5.53400996354605
18.9799995869398 5.59953660189603
18.9999995864928 5.61540596018024
19.0199995860457 5.62015084867938
19.0399995855987 5.61020961549159
19.0599995851517 5.6219985275026
19.0799995847046 5.60850898928214
19.0999995842576 5.61580965296785
19.1199995838106 5.66544999647826
19.1399995833635 5.68544551889804
19.1599995829165 5.69216558816161
19.1799995824695 5.69194162398775
19.1999995820224 5.66438274454535
19.2199995815754 5.65609310824323
19.2399995811284 5.67100057855817
19.2599995806813 5.69093191849876
19.2799995802343 5.69049320352432
19.2999995797873 5.70973034503465
19.3199995793402 5.71109561964897
19.3399995788932 5.71786712244976
19.3599995784462 5.71608852109852
19.3799995779991 5.69491225150031
19.3999995775521 5.64850497637843
19.419999577105 5.66545009942363
19.439999576658 5.74266819828195
19.459999576211 5.74888136886698
19.4799995757639 5.75907816694173
19.4999995753169 5.81487085163348
19.5199995748699 5.88296059262304
19.5399995744228 5.87663065812695
19.5599995739758 5.8508658259098
19.5799995735288 5.8854720299403
19.5999995730817 5.91737699844483
19.6199995726347 5.90831820469236
19.6399995721877 5.83073056690578
19.6599995717406 5.83785523864588
19.6799995712936 5.86481286372563
19.6999995708466 5.9295069607043
19.7199995703995 5.93012668968193
19.7399995699525 5.9652737570521
19.7599995695055 6.00382608983918
19.7799995690584 6.01126652352121
19.7999995686114 5.96517529362001
19.8199995681643 5.89129015346944
19.8399995677173 5.8845065530471
19.8599995672703 5.94033065910141
19.8799995668232 5.98270308619904
19.8999995663762 5.99390046977606
19.9199995659292 6.01084781280329
19.9399995654821 6.09495935780343
19.9599995650351 6.07868944462737
19.9799995645881 6.04158146052704
19.999999564141 5.9935123680201
20.019999563694 5.98344568314747
20.039999563247 5.99553607785108
20.0599995627999 6.01900595273614
20.0799995623529 6.0335918772293
20.0999995619059 6.07450643164585
20.1199995614588 6.07721952287274
20.1399995610118 6.08725191256137
20.1599995605648 6.02818177746112
20.1799995601177 6.06320672058572
20.1999995596707 6.08077524385087
20.2199995592237 6.11531945274476
20.2399995587766 6.11741467373907
20.2599995583296 6.12928061484942
20.2799995578825 6.11095982823142
20.2999995574355 6.16541115676016
20.3199995569885 6.19944274704074
20.3399995565414 6.18303490282785
20.3599995560944 6.20097445684826
20.3799995556474 6.28151299380396
20.3999995552003 6.32346061050173
20.4199995547533 6.30136438778476
20.4399995543063 6.24702251695747
20.4599995538592 6.24492917356332
20.4799995534122 6.29060196114314
20.4999995529652 6.36860352369999
20.5199995525181 6.49090966810101
20.5399995520711 6.51823040326153
20.5599995516241 6.53872837167139
20.579999551177 6.54848512836428
20.59999955073 6.61375675440585
20.619999550283 6.68470060938988
20.6399995498359 6.77290417003052
20.6599995493889 6.90934376276875
20.6799995489419 7.04863471264098
20.6999995484948 7.12069240854381
20.7199995480478 7.1705172593315
20.7399995476007 7.24421127381083
20.7599995471537 7.39687366189887
20.7799995467067 7.71681544234616
20.7999995462596 7.92840623490826
20.8199995458126 8.06600053744446
20.8399995453656 8.2342301892567
20.8599995449185 8.51677228847966
20.8799995444715 8.76206268145321
20.8999995440245 8.95418747330414
20.9199995435774 9.0627408223445
20.9399995431304 9.04214403414634
20.9599995426834 9.00951936219865
20.9799995422363 9.04462055050941
20.9999995417893 9.12866804012518
21.0199995413423 9.07636785686617
21.0399995408952 8.91727348541655
21.0599995404482 8.77166389036835
21.0799995400012 8.65249035976481
21.0999995395541 8.54900974709714
21.1199995391071 8.35015066974664
21.13999953866 8.04653971995491
21.159999538213 7.84731887988785
21.179999537766 7.72867600780307
21.1999995373189 7.58188977115397
21.2199995368719 7.47038763767383
21.2399995364249 7.38866515455895
21.2599995359778 7.27203933006802
21.2799995355308 7.14513464527504
21.2999995350838 7.06557360385495
21.3199995346367 7.04204588774004
21.3399995341897 6.98771595972408
21.3599995337427 6.94370124221226
21.3799995332956 6.94374754024974
21.3999995328486 6.90389893047046
21.4199995324016 6.81265229696045
21.4399995319545 6.7789885558388
21.4599995315075 6.83094630368288
21.4799995310605 6.86832038202139
21.4999995306134 6.79360212659684
21.5199995301664 6.74060690045574
21.5399995297194 6.73342751064529
21.5599995292723 6.77776855545607
21.5799995288253 6.77284346174449
21.5999995283782 6.76648527617368
21.6199995279312 6.76908429668498
21.6399995274842 6.72555739843981
21.6599995270371 6.67679967999062
21.6799995265901 6.64254759974687
21.6999995261431 6.73811518864271
21.719999525696 6.79592087926891
21.739999525249 6.79849110236304
21.759999524802 6.75658106397411
21.7799995243549 6.76770501992703
21.7999995239079 6.75979945012885
21.8199995234609 6.75969626194392
21.8399995230138 6.68025891053571
21.8599995225668 6.70452211729541
21.8799995221198 6.73124197289331
21.8999995216727 6.74528528345176
21.9199995212257 6.7009309515714
21.9399995207787 6.68537650572183
21.9599995203316 6.78358889516213
21.9799995198846 6.87624007373364
21.9999995194376 6.88654990365588
22.0199995189905 6.85068057335501
22.0399995185435 6.84328537561328
22.0599995180964 6.81659300799316
22.0799995176494 6.81107724389133
22.0999995172024 6.80315522977314
22.1199995167553 6.82849030005693
22.1399995163083 6.85508096800449
22.1599995158613 6.84088049562231
22.1799995154142 6.82492679386671
22.1999995149672 6.83421612166954
22.2199995145202 6.90928375036391
22.2399995140731 6.9729046905104
22.2599995136261 6.99256312814394
22.2799995131791 6.99677954289875
22.299999512732 6.98340880912187
22.319999512285 6.95550277236356
22.339999511838 6.91477226289377
22.3599995113909 6.94974356106878
22.3799995109439 6.97243168715254
22.3999995104969 6.98633413561568
22.4199995100498 6.9632275527009
22.4399995096028 6.97897536697206
22.4599995091558 7.06307138842469
22.4799995087087 7.12044373223542
22.4999995082617 7.16031070214373
22.5199995078146 7.21351615034392
22.5399995073676 7.26995869118381
22.5599995069206 7.31388354270336
22.5799995064735 7.29149198581315
22.5999995060265 7.24888038039873
22.6199995055795 7.17893400120248
22.6399995051324 7.08431882060981
22.6599995046854 7.07806971040861
22.6799995042384 7.12786215856127
22.6999995037913 7.14259916207211
22.7199995033443 7.14233379998543
22.7399995028973 7.18671139565725
22.7599995024502 7.20230099919133
22.7799995020032 7.23876150196686
22.7999995015562 7.207361203876
22.8199995011091 7.21519218146297
22.8399995006621 7.16534448824158
22.8599995002151 7.20112724878348
22.879999499768 7.27825504776516
22.899999499321 7.30090367559079
22.9199994988739 7.24053737433094
22.9399994984269 7.18260587255874
22.9599994979799 7.16737044435432
22.9799994975328 7.14233710267716
22.9999994970858 7.16842530072763
23.0199994966388 7.18421391937105
23.0399994961917 7.2352862842001
23.0599994957447 7.21991003625743
23.0799994952977 7.19137076908912
23.0999994948506 7.20396590217956
23.1199994944036 7.24319783870451
23.1399994939566 7.3127346439917
23.1599994935095 7.36870112394654
23.1799994930625 7.43369123048472
23.1999994926155 7.3890921976428
23.2199994921684 7.33789768725163
23.2399994917214 7.38608632857721
23.2599994912744 7.39562859424394
23.2799994908273 7.36853391268367
23.2999994903803 7.35558203816092
23.3199994899333 7.34898588147077
23.3399994894862 7.35072384466992
23.3599994890392 7.3948050079159
23.3799994885921 7.43227540857161
23.3999994881451 7.39827166872197
23.4199994876981 7.41450048815307
23.439999487251 7.42948195846431
23.459999486804 7.45248309040913
23.479999486357 7.35166246704385
23.4999994859099 7.31201736957127
23.5199994854629 7.39020293372729
23.5399994850159 7.45962996943177
23.5599994845688 7.4456196864665
23.5799994841218 7.43154744117138
23.5999994836748 7.47140935637051
23.6199994832277 7.45556468390982
23.6399994827807 7.41650958880413
23.6599994823337 7.42122001570869
23.6799994818866 7.44187108728587
23.6999994814396 7.48595613152791
23.7199994809926 7.47263518603609
23.7399994805455 7.43785168914106
23.7599994800985 7.35534148941246
23.7799994796515 7.31845307002216
23.7999994792044 7.38906873037655
23.8199994787574 7.45848208871371
23.8399994783103 7.49467984084759
23.8599994778633 7.45660685126917
23.8799994774163 7.37531114213251
23.8999994769692 7.32810642059644
23.9199994765222 7.35664971249321
23.9399994760752 7.41848295589788
23.9599994756281 7.4639371613082
23.9799994751811 7.42567938154454
23.9999994747341 7.41751447701212
24.019999474287 7.37829957736983
24.03999947384 7.40315983132133
24.059999473393 7.4408440485986
24.0799994729459 7.45688248666948
24.0999994724989 7.43347779372045
24.1199994720519 7.36894278445375
24.1399994716048 7.30944713143496
24.1599994711578 7.31707168864564
24.1799994707108 7.38962550768098
24.1999994702637 7.4533117604875
24.2199994698167 7.4748201719064
24.2399994693697 7.46045964518824
24.2599994689226 7.44700969257479
24.2799994684756 7.44841813743215
24.2999994680285 7.41771371527016
24.3199994675815 7.4397997162685
24.3399994671345 7.44264804986507
24.3599994666874 7.48680470336604
24.3799994662404 7.42480321440384
24.3999994657934 7.43768269867643
24.4199994653463 7.3968111875041
24.4399994648993 7.43997527983483
24.4599994644523 7.40609321237418
24.4799994640052 7.4324273435379
24.4999994635582 7.40140272836633
24.5199994631112 7.41954618803078
24.5399994626641 7.39804347595306
24.5599994622171 7.37922658138487
24.5799994617701 7.4080566265244
24.599999461323 7.49924029101511
24.619999460876 7.54092758738917
24.639999460429 7.50559418334839
24.6599994599819 7.40548772029925
24.6799994595349 7.32996928180019
24.6999994590878 7.35302519677429
24.7199994586408 7.37616927051924
24.7399994581938 7.34496674667379
24.7599994577467 7.33222520700704
24.7799994572997 7.3615304371527
24.7999994568527 7.41975794762039
24.8199994564056 7.40017041316552
24.8399994559586 7.42918290995996
24.8599994555116 7.47148085803328
24.8799994550645 7.48518084217949
24.8999994546175 7.45538062322262
24.9199994541705 7.46886130732711
24.9399994537234 7.46233783456331
24.9599994532764 7.45586249612199
24.9799994528294 7.48103840818477
24.9999994523823 7.47290857796431
25.0199994519353 7.48405921998379
25.0399994514883 7.49509776980023
25.0599994510412 7.58752602186807
25.0799994505942 7.57120522779886
25.0999994501472 7.49278607839097
25.1199994497001 7.46360909190089
25.1399994492531 7.51737563901838
25.159999448806 7.58226428197495
25.179999448359 7.65670602561333
25.199999447912 7.79302582383502
25.2199994474649 7.87459944005702
25.2399994470179 7.87020836054
25.2599994465709 7.82168665239129
25.2799994461238 7.75215146730705
25.2999994456768 7.79043520565667
25.3199994452298 7.8815022239504
25.3399994447827 8.00236485706533
25.3599994443357 7.99837977192647
25.3799994438887 8.01201608284884
25.3999994434416 8.06336534152141
25.4199994429946 8.18485879314252
25.4399994425476 8.25976919458375
25.4599994421005 8.30582289577594
25.4799994416535 8.30906685332996
25.4999994412065 8.29963352762742
25.5199994407594 8.30043350001407
25.5399994403124 8.28256105187197
25.5599994398654 8.30414790077526
25.5799994394183 8.25635197451021
25.5999994389713 8.18306560738075
25.6199994385242 8.03965767164091
25.6399994380772 7.86321726500279
25.6599994376302 7.7508911520753
25.6799994371831 7.73943448750805
25.6999994367361 7.84317358223641
25.7199994362891 7.95289803905286
25.739999435842 7.94589722904717
25.759999435395 7.85164183733494
25.779999434948 7.73395728609163
25.7999994345009 7.67618046771313
25.8199994340539 7.69124074321491
25.8399994336069 7.68897715696535
25.8599994331598 7.69563122621861
25.8799994327128 7.69556512549578
25.8999994322658 7.69710816318483
25.9199994318187 7.61140167937238
25.9399994313717 7.52352191459531
25.9599994309247 7.4684813854935
25.9799994304776 7.47970319505746
25.9999994300306 7.53636252700353
26.0199994295836 7.53026509103906
26.0399994291365 7.44440863781353
26.0599994286895 7.40209595615708
26.0799994282424 7.44716364405411
26.0999994277954 7.50908476530279
26.1199994273484 7.56501330528323
26.1399994269013 7.56004895453612
26.1599994264543 7.59323885967894
26.1799994260073 7.55456493158278
26.1999994255602 7.61629214753113
26.2199994251132 7.63393644683274
26.2399994246662 7.60882880173418
26.2599994242191 7.57884704009005
26.2799994237721 7.56759943646421
26.2999994233251 7.56075989707291
26.319999422878 7.51232449805829
26.339999422431 7.52438780224195
26.359999421984 7.58600782091236
26.3799994215369 7.60780455961143
26.3999994210899 7.53797113562843
26.4199994206429 7.49537000860829
26.4399994201958 7.45832669304156
26.4599994197488 7.49279764071277
26.4799994193017 7.47277742430661
26.4999994188547 7.54643945881547
26.5199994184077 7.54992673255618
26.5399994179606 7.54994806175303
26.5599994175136 7.43283250974672
26.5799994170666 7.41714966592525
26.5999994166195 7.43987437407255
26.6199994161725 7.43840797218176
26.6399994157255 7.5456420041415
26.6599994152784 7.57379573143045
26.6799994148314 7.6430290011231
26.6999994143844 7.52910654110249
26.7199994139373 7.5587155945481
26.7399994134903 7.58384635615047
26.7599994130433 7.55615012430241
26.7799994125962 7.53019812971253
26.7999994121492 7.539320894259
26.8199994117022 7.47572458491977
26.8399994112551 7.34126903968025
26.8599994108081 7.29223116917298
26.8799994103611 7.46162213017196
26.899999409914 7.61428871886793
26.919999409467 7.5951253468508
26.9399994090199 7.45557376405883
26.9599994085729 7.45477343358745
26.9799994081259 7.54692302360453
26.9999994076788 7.59490488133743
27.0199994072318 7.5003199859442
27.0399994067848 7.47338206789118
27.0599994063377 7.48337667239738
27.0799994058907 7.53769397647349
27.0999994054437 7.44372001660855
27.1199994049966 7.42040441946084
27.1399994045496 7.43109038843068
27.1599994041026 7.53934775087589
27.1799994036555 7.61417019184649
27.1999994032085 7.60573697768855
27.2199994027615 7.56104995397514
27.2399994023144 7.4788603514778
27.2599994018674 7.4665750548386
27.2799994014204 7.47225607783842
27.2999994009733 7.52430926027109
27.3199994005263 7.50182200354355
27.3399994000793 7.47251406956783
27.3599993996322 7.36608199923379
27.3799993991852 7.38704336476588
27.3999993987381 7.40114205166105
27.4199993982911 7.50376484376605
27.4399993978441 7.51002422115205
27.459999397397 7.53386220736465
27.47999939695 7.53220155027264
27.499999396503 7.53022863484851
27.5199993960559 7.5668704145147
27.5399993956089 7.55208521372836
27.5599993951619 7.59823001697588
27.5799993947148 7.60353967085933
27.5999993942678 7.60010115479984
27.6199993938208 7.52620535946387
27.6399993933737 7.42583356658527
27.6599993929267 7.38743451156234
27.6799993924797 7.41386850858082
27.6999993920326 7.52313062276264
27.7199993915856 7.58940677570418
27.7399993911386 7.57568020776605
27.7599993906915 7.50897361194955
27.7799993902445 7.5290084189658
27.7999993897974 7.55902975255061
27.8199993893504 7.54283557534137
27.8399993889034 7.4884140810538
27.8599993884563 7.45586425065086
27.8799993880093 7.43833462414415
27.8999993875623 7.48260660655187
27.9199993871152 7.56765179824786
27.9399993866682 7.66206811250577
27.9599993862212 7.66135151893539
27.9799993857741 7.55667637454722
27.9999993853271 7.43757483979746
28.0199993848801 7.33219978823728
28.039999384433 7.37856495696244
28.059999383986 7.4751140200859
28.079999383539 7.54691545801353
28.0999993830919 7.49172250019021
28.1199993826449 7.51327126234723
28.1399993821979 7.53665068803213
28.1599993817508 7.55689701173902
28.1799993813038 7.49070186221575
28.1999993808568 7.4701153677256
28.2199993804097 7.45212861429169
28.2399993799627 7.47656760066234
28.2599993795156 7.5057776586107
28.2799993790686 7.48594210805603
28.2999993786216 7.46025049131334
28.3199993781745 7.46525087322047
28.3399993777275 7.52301512459596
28.3599993772805 7.57474879643585
28.3799993768334 7.62671082743936
28.3999993763864 7.64603679988926
28.4199993759394 7.61430935197439
28.4399993754923 7.58134407213272
28.4599993750453 7.58758703745526
28.4799993745983 7.55841162769391
28.4999993741512 7.56861291721394
28.5199993737042 7.67510533838259
28.5399993732572 7.69936883091146
28.5599993728101 7.64785519306248
28.5799993723631 7.56306725348903
28.5999993719161 7.61442346827896
28.619999371469 7.66199314518287
28.639999371022 7.66538178659766
28.659999370575 7.66827152999648
28.6799993701279 7.70809376990662
28.6999993696809 7.7397902803993
28.7199993692338 7.72536531437912
28.7399993687868 7.70662047748332
28.7599993683398 7.80908644136717
28.7799993678927 7.82471462107071
28.7999993674457 7.74313357456634
28.8199993669987 7.6955566000645
28.8399993665516 7.79573225821691
28.8599993661046 7.94110919147271
28.8799993656576 7.92127512540521
28.8999993652105 7.89467625477605
28.9199993647635 7.90144154508278
28.9399993643165 7.98945408512527
28.9599993638694 8.04916262792006
28.9799993634224 8.05086812493062
28.9999993629754 8.01361413212809
29.0199993625283 8.07516227675028
29.0399993620813 8.09364684266981
29.0599993616343 8.04041576574288
29.0799993611872 8.0505776206134
29.0999993607402 8.1995162102394
29.1199993602932 8.44963320774722
29.1399993598461 8.58677558459152
29.1599993593991 8.63149770649849
29.179999358952 8.77257263994038
29.199999358505 8.9901757769888
29.219999358058 9.20760546942754
29.2399993576109 9.34022911129555
29.2599993571639 9.52432115265244
29.2799993567169 9.80034813455229
29.2999993562698 10.1010282370969
29.3199993558228 10.3071321559338
29.3399993553758 10.5295863036345
29.3599993549287 10.8986887805255
29.3799993544817 11.2430728886717
29.3999993540347 11.4722474955817
29.4199993535876 11.6648986755364
29.4399993531406 11.8343396075405
29.4599993526936 12.0393844430065
29.4799993522465 12.1326093107795
29.4999993517995 12.1667748478259
29.5199993513525 12.1860681679136
29.5399993509054 12.1600593193564
29.5599993504584 12.0761402114285
29.5799993500113 11.8419550042016
29.5999993495643 11.4484677076902
29.6199993491173 11.1167098711301
29.6399993486702 10.8552664486499
29.6599993482232 10.5540577959332
29.6799993477762 10.3365869854409
29.6999993473291 10.1129459117412
29.7199993468821 9.83201783767518
29.7399993464351 9.47996263970114
29.759999345988 9.2300802329078
29.779999345541 8.96224640447187
29.799999345094 8.76489148266824
29.8199993446469 8.53414678013195
29.8399993441999 8.40816262398235
29.8599993437529 8.30068900788385
29.8799993433058 8.29835397270536
29.8999993428588 8.23482803968552
29.9199993424118 8.18002338658606
29.9399993419647 7.98635884666408
29.9599993415177 7.90810955623727
29.9799993410707 7.87650496626234
29.9999993406236 7.89998923389453
30.0199993401766 7.84072742335418
30.0399993397295 7.73021469521127
30.0599993392825 7.57384258848881
30.0799993388355 7.3610852698808
30.0999993383884 7.31124220504609
30.1199993379414 7.36700848755935
30.1399993374944 7.40932760404173
30.1599993370473 7.40304388531634
30.1799993366003 7.42695256920337
30.1999993361533 7.49771446676795
30.2199993357062 7.51975878318056
30.2399993352592 7.46871762671508
30.2599993348122 7.41786129198313
30.2799993343651 7.41123383591435
30.2999993339181 7.3718426894489
30.3199993334711 7.31738301477904
30.339999333024 7.33547090331427
30.359999332577 7.36424884841665
30.37999933213 7.3712718904291
30.3999993316829 7.30714314211543
30.4199993312359 7.22351270166957
30.4399993307889 7.14125427632484
30.4599993303418 7.11270303909017
30.4799993298948 7.17926740802721
30.4999993294477 7.24810443486055
30.5199993290007 7.22610501492028
30.5399993285537 7.23338550755589
30.5599993281066 7.26247192119441
30.5799993276596 7.28361232632362
30.5999993272126 7.26856920470391
30.6199993267655 7.20622114946787
30.6399993263185 7.22445048750991
30.6599993258715 7.18318942670992
30.6799993254244 7.17340948834609
30.6999993249774 7.23373756646137
30.7199993245304 7.25816823865231
30.7399993240833 7.29375476209469
30.7599993236363 7.24603184824932
30.7799993231893 7.24250454373325
30.7999993227422 7.20735067914793
30.8199993222952 7.19637404777178
30.8399993218482 7.2076803384779
30.8599993214011 7.13738674802824
30.8799993209541 7.07480168262671
30.8999993205071 7.07914564037758
30.91999932006 7.12729353850405
30.939999319613 7.13895831691413
30.9599993191659 7.17186641958592
30.9799993187189 7.20062655172656
30.9999993182719 7.20138802841849
31.0199993178248 7.17756052621441
31.0399993173778 7.16236007089407
31.0599993169308 7.13406812865792
31.0799993164837 7.05199274635686
31.0999993160367 6.9970554579905
31.1199993155897 7.00106045817862
31.1399993151426 7.05400336450926
31.1599993146956 7.07994335572157
31.1799993142486 7.08577616555427
31.1999993138015 7.09133032808633
31.2199993133545 7.15298722559368
31.2399993129075 7.11961641831354
31.2599993124604 7.08520851147768
31.2799993120134 7.05170514467561
31.2999993115664 7.06550373520142
31.3199993111193 7.08677076809454
31.3399993106723 7.00143138032515
31.3599993102252 7.00689804153893
31.3799993097782 7.05921580917507
31.3999993093312 7.09834261892112
31.4199993088841 7.04016274415142
31.4399993084371 6.95140660382965
31.4599993079901 6.90067908621539
31.479999307543 6.93031322334617
31.499999307096 6.93402907044235
31.519999306649 6.93849779886594
31.5399993062019 6.88226254264228
31.5599993057549 6.87578618510403
31.5799993053079 6.91167176241861
31.5999993048608 6.96062025751817
31.6199993044138 7.03775966627371
31.6399993039668 7.06249388845749
31.6599993035197 6.9970270386801
31.6799993030727 6.93934841252143
31.6999993026257 6.95323546763196
31.7199993021786 7.01890704177308
31.7399993017316 7.06033360821732
31.7599993012846 7.07317595421602
31.7799993008375 7.11027065378125
31.7999993003905 7.09714674005518
31.8199992999434 7.09393678155806
31.8399992994964 7.09624732679389
31.8599992990494 7.16706095250512
31.8799992986023 7.15726672597377
31.8999992981553 7.06777830365279
31.9199992977083 7.03885139821014
31.9399992972612 7.03988274040183
31.9599992968142 7.00811388196327
31.9799992963672 7.01318201567191
31.9999992959201 7.0793086073254
32.0199992954731 7.20757680328332
32.0399992950261 7.08928007250406
32.059999294579 6.95599959968954
32.079999294132 6.8942610822731
32.099999293685 6.95066824681352
32.1199992932379 7.03860270868203
32.1399992927909 7.00569236250972
32.1599992923439 6.9686179766522
32.1799992918968 6.9496390734293
32.1999992914498 6.96789234222745
32.2199992910028 7.01139643411836
32.2399992905557 7.03863814932279
32.2599992901087 7.08755857926934
32.2799992896616 7.09363368531822
32.2999992892146 7.06421331667975
32.3199992887676 7.11057599547425
32.3399992883205 7.05330969651051
32.3599992878735 6.99008412069338
32.3799992874265 6.91093572330337
32.3999992869794 6.97972169238614
32.4199992865324 7.01030303869766
32.4399992860854 6.99371663527135
32.4599992856383 6.99318242135049
32.4799992851913 7.05850468740465
32.4999992847443 7.08906705450795
32.5199992842972 7.09824490954752
32.5399992838502 7.09528572056828
32.5599992834032 7.18944813491523
32.5799992829561 7.26303038219072
32.5999992825091 7.22878102870138
32.6199992820621 7.19536462383095
32.639999281615 7.10347712660263
32.659999281168 7.15047788798524
32.6799992807209 7.23170291369973
32.6999992802739 7.43877556310651
32.7199992798269 7.60863993549222
32.7399992793798 7.72447194713459
32.7599992789328 7.76524166051234
32.7799992784858 7.86339985094703
32.7999992780387 8.04760997427495
32.8199992775917 8.1183811676355
32.8399992771447 8.13161568852989
32.8599992766976 8.23850048600737
32.8799992762506 8.49548041471702
32.8999992758036 8.62288165849816
32.9199992753565 8.65992748010731
32.9399992749095 8.71262400560322
32.9599992744625 8.85401096661557
32.9799992740154 9.05737711574339
32.9999992735684 9.18596314303826
33.0199992731214 9.18485381334241
33.0399992726743 9.16028155541793
33.0599992722273 9.20581386752001
33.0799992717803 9.13725272133414
33.0999992713332 8.91127104572381
33.1199992708862 8.65030158105628
33.1399992704391 8.49180857660527
33.1599992699921 8.41017218508975
33.1799992695451 8.37551060666258
33.199999269098 8.23527473990118
33.219999268651 8.02455078241433
33.239999268204 7.82832642848322
33.2599992677569 7.76218165248192
33.2799992673099 7.68818968035775
33.2999992668629 7.55505844161745
33.3199992664158 7.44210680142616
33.3399992659688 7.29785559392363
33.3599992655218 7.18597003139672
33.3799992650747 7.00589027294585
33.3999992646277 6.85484518513263
33.4199992641807 6.85429522360492
33.4399992637336 6.91555767100712
33.4599992632866 6.97064833626393
33.4799992628396 6.87928907951348
33.4999992623925 6.77306731428464
33.5199992619455 6.84901598088454
33.5399992614985 6.98111523196625
33.5599992610514 7.0316164414821
33.5799992606044 6.84318598331387
33.5999992601573 6.69988974426732
33.6199992597103 6.72002631136716
33.6399992592633 6.77186370306185
33.6599992588162 6.78360383485306
33.6799992583692 6.70457438550194
33.6999992579222 6.56659437915449
33.7199992574751 6.51410886231848
33.7399992570281 6.47229040619031
33.7599992565811 6.54448468857258
33.779999256134 6.58063808159094
33.799999255687 6.64288209997461
33.81999925524 6.5801289433437
33.8399992547929 6.52969204926649
33.8599992543459 6.55538207446398
33.8799992538989 6.56689669009261
33.8999992534518 6.52985671096088
33.9199992530048 6.45842846065416
33.9399992525578 6.46011367098456
33.9599992521107 6.5293695447617
33.9799992516637 6.55306577919018
33.9999992512167 6.47983241741996
34.0199992507696 6.38999220947685
34.0399992503226 6.35702608843231
34.0599992498755 6.40360530061513
34.0799992494285 6.40407749718526
34.0999992489815 6.30094494415473
34.1199992485344 6.20947874808759
34.1399992480874 6.19398677434607
34.1599992476404 6.20131560853342
34.1799992471933 6.18756790893616
34.1999992467463 6.18203383961453
34.2199992462993 6.24191345704587
34.2399992458522 6.29107602717402
34.2599992454052 6.37326532951794
34.2799992449582 6.4133025451566
34.2999992445111 6.37638168153284
34.3199992440641 6.36065539230171
34.3399992436171 6.38627647176905
34.35999924317 6.3383618122188
34.379999242723 6.25840984416656
34.399999242276 6.20050961779859
34.4199992418289 6.23568249624031
34.4399992413819 6.30598546139265
34.4599992409348 6.29280655312683
34.4799992404878 6.34996124963329
34.4999992400408 6.31767851531621
34.5199992395937 6.30725117385991
34.5399992391467 6.24417267384696
34.5599992386997 6.28242157367385
34.5799992382526 6.29072460556274
34.5999992378056 6.27950535986642
34.6199992373586 6.19134862604907
34.6399992369115 6.17787448551629
34.6599992364645 6.11405573219999
34.6799992360175 6.07795674345422
34.6999992355704 5.98568629440136
34.7199992351234 6.00367746622779
34.7399992346764 5.98841365611633
34.7599992342293 6.06633296797543
34.7799992337823 6.04994560098435
34.7999992333353 6.08857931599231
34.8199992328882 6.1215421016693
34.8399992324412 6.16011575713727
34.8599992319942 6.18298468535399
34.8799992315471 6.23095322239878
34.8999992311001 6.21917516870914
34.919999230653 6.16242954452082
34.939999230206 6.09010402370449
34.959999229759 6.0807311044614
34.9799992293119 6.11289022135355
34.9999992288649 6.0296496124728
35.0199992284179 5.99283751804631
35.0399992279708 6.01238301548628
35.0599992275238 6.00831959605286
35.0799992270768 6.00512513086339
35.0999992266297 5.96335719343939
35.1199992261827 5.97445389731851
35.1399992257357 5.99470158551754
35.1599992252886 6.04491897018266
35.1799992248416 6.04643335812216
35.1999992243946 6.05414611990368
35.2199992239475 6.02453923240304
35.2399992235005 6.1360743608564
35.2599992230535 6.14677337710869
35.2799992226064 6.15114896988743
35.2999992221594 6.16456029220794
35.3199992217124 6.22668101144842
35.3399992212653 6.29621745139626
35.3599992208183 6.24229921131355
35.3799992203712 6.11338548293953
35.3999992199242 5.98431813144202
35.4199992194772 5.93280709632524
35.4399992190301 5.95178367225173
35.4599992185831 5.93009300208606
35.4799992181361 5.91261951473647
35.499999217689 5.89821005508497
35.519999217242 5.95804926555076
35.539999216795 5.94830272447806
35.5599992163479 5.98364922126481
35.5799992159009 5.95009566413911
35.5999992154539 6.00093154676986
35.6199992150068 6.02114333049357
35.6399992145598 6.05246745430575
35.6599992141128 5.99091581005963
35.6799992136657 5.9301427092775
35.6999992132187 5.92839143655506
35.7199992127717 5.89879275196862
35.7399992123246 5.94254116168798
35.7599992118776 5.94971943489647
35.7799992114306 6.03336597174034
35.7999992109835 6.01829796520645
35.8199992105365 6.00910974774576
35.8399992100894 6.0114637478906
35.8599992096424 6.06620980426089
35.8799992091954 6.13212633461432
35.8999992087483 6.19710284386989
35.9199992083013 6.26615720738217
35.9399992078543 6.35771660519795
35.9599992074072 6.39462794128631
35.9799992069602 6.37055013515098
35.9999992065132 6.32329737301368
36.0199992060661 6.41004905131369
36.0399992056191 6.49917246267249
36.0599992051721 6.56848956916515
36.079999204725 6.56107312905038
36.099999204278 6.62420409116382
36.119999203831 6.66821953350365
36.1399992033839 6.73580941142759
36.1599992029369 6.7367047593724
36.1799992024899 6.74790527499764
36.1999992020428 6.72694209382012
36.2199992015958 6.71961938561846
36.2399992011487 6.66460161067839
36.2599992007017 6.58735818611825
36.2799992002547 6.50695417081898
36.2999991998076 6.44757901509964
36.3199991993606 6.50191718369341
36.3399991989136 6.48394837319117
36.3599991984665 6.38098242298976
36.3799991980195 6.17442956847943
36.3999991975725 6.01881879447924
36.4199991971254 5.9966787716999
36.4399991966784 6.02931034750232
36.4599991962314 6.04163854895264
36.4799991957843 6.02600670062358
36.4999991953373 6.00035158095881
36.5199991948903 6.04574342865537
36.5399991944432 5.93828409284149
36.5599991939962 5.838443739967
36.5799991935492 5.68154762584142
36.5999991931021 5.67121345430879
36.6199991926551 5.73023547235896
36.6399991922081 5.76246061695281
36.659999191761 5.81365068961121
36.679999191314 5.74015303836344
36.6999991908669 5.69637402910082
36.7199991904199 5.62341617326599
36.7399991899729 5.55566093301651
36.7599991895258 5.56318903303105
36.7799991890788 5.56563655816172
36.7999991886318 5.62650489699466
36.8199991881847 5.61873047369639
36.8399991877377 5.62749034588519
36.8599991872907 5.62231993360634
36.8799991868436 5.59631118509601
36.8999991863966 5.61620292875515
36.9199991859496 5.58518768695321
36.9399991855025 5.57480858043837
36.9599991850555 5.46729743975546
36.9799991846085 5.48700047451223
36.9999991841614 5.44924673124061
37.0199991837144 5.49399571952688
37.0399991832674 5.48151499842192
37.0599991828203 5.51117956557445
37.0799991823733 5.46778780543771
37.0999991819263 5.42357762786895
37.1199991814792 5.37697150855476
37.1399991810322 5.40915197944001
37.1599991805851 5.39028500980342
37.1799991801381 5.3891949040319
37.1999991796911 5.38946594533067
37.219999179244 5.43838192685181
37.239999178797 5.48496615098676
37.25999917835 5.49796164763537
37.2799991779029 5.48156892427019
37.2999991774559 5.49239226750253
37.3199991770089 5.47655248831751
37.3399991765618 5.56171172687071
37.3599991761148 5.52885284906482
37.3799991756678 5.52327885520466
37.3999991752207 5.44460257827034
37.4199991747737 5.45288733349452
37.4399991743267 5.39876118981719
37.4599991738796 5.52660225401333
37.4799991734326 5.56546701150436
37.4999991729856 5.58173391789031
37.5199991725385 5.43192943452573
37.5399991720915 5.36242993506438
37.5599991716444 5.37853494776635
37.5799991711974 5.30341534913635
37.5999991707504 5.2760986170752
37.6199991703033 5.29023550182175
37.6399991698563 5.40232357831687
37.6599991694093 5.39372619671303
37.6799991689622 5.34637073181355
37.6999991685152 5.30996931006054
37.7199991680682 5.39778377893218
37.7399991676211 5.48293914578349
37.7599991671741 5.47135025567952
37.7799991667271 5.40993828460262
37.79999916628 5.35599661128208
37.819999165833 5.34226586681303
37.839999165386 5.3395674871679
37.8599991649389 5.28417765848261
37.8799991644919 5.31282532817478
37.8999991640449 5.34429498510241
37.9199991635978 5.33528647218818
37.9399991631508 5.291219373898
37.9599991627038 5.25827357055891
37.9799991622567 5.31506593375196
37.9999991618097 5.37726869814291
38.0199991613626 5.36476996672782
38.0399991609156 5.36882190969568
38.0599991604686 5.32584940551166
38.0799991600215 5.27340429492143
38.0999991595745 5.23451017297814
38.1199991591275 5.24270478628383
38.1399991586804 5.24862085605925
38.1599991582334 5.22862934030193
38.1799991577864 5.30411355334647
38.1999991573393 5.29856241432477
38.2199991568923 5.31589698933869
38.2399991564453 5.2751183173463
38.2599991559982 5.28770998945905
38.2799991555512 5.30432906224831
38.2999991551042 5.30755010563491
38.3199991546571 5.36952324591487
38.3399991542101 5.31090312447859
38.3599991537631 5.26869392755126
38.379999153316 5.2453283138803
38.399999152869 5.27048326701469
38.419999152422 5.25428198523424
38.4399991519749 5.22480669958866
38.4599991515279 5.27725463711917
38.4799991510808 5.28552282853469
38.4999991506338 5.29144631752687
38.5199991501868 5.29473556393029
38.5399991497397 5.31777738969537
38.5599991492927 5.31022227068068
38.5799991488457 5.16310674403723
38.5999991483986 5.09322652771258
38.6199991479516 5.07288179281752
38.6399991475046 5.17988571426143
38.6599991470575 5.19227378319231
38.6799991466105 5.19245185068908
38.6999991461635 5.17897487992027
38.7199991457164 5.13972630659523
38.7399991452694 5.08203243194825
38.7599991448224 5.10983095122522
38.7799991443753 5.15575350999962
38.7999991439283 5.24289297167704
38.8199991434813 5.20044227027902
38.8399991430342 5.22432822381062
38.8599991425872 5.2352472204906
38.8799991421402 5.21325148563638
38.8999991416931 5.19821034478279
38.9199991412461 5.15081221985504
38.939999140799 5.17725480892917
38.959999140352 5.16114862158014
38.979999139905 5.17014375197454
38.9999991394579 5.1908588215003
39.0199991390109 5.18676851159341
39.0399991385639 5.18551108409031
39.0599991381168 5.18658428223948
39.0799991376698 5.19764665119911
39.0999991372228 5.13484569149942
39.1199991367757 5.11347560637342
39.1399991363287 5.12439744922054
39.1599991358817 5.22066710771544
39.1799991354346 5.19302288659844
39.1999991349876 5.1723971651739
39.2199991345406 5.15705774629699
39.2399991340935 5.22905032913645
39.2599991336465 5.21281831372701
39.2799991331995 5.07187464626438
39.2999991327524 5.01198417631129
39.3199991323054 5.06061509435333
39.3399991318583 5.16434259088693
39.3599991314113 5.11772153764383
39.3799991309643 5.06077497579643
39.3999991305172 5.06528491150009
39.4199991300702 5.12806510768704
39.4399991296232 5.21529744989656
39.4599991291761 5.26025398758449
39.4799991287291 5.23853155585589
39.4999991282821 5.1436039319892
39.519999127835 5.15771125069143
39.539999127388 5.21508365642678
39.559999126941 5.2192557490127
39.5799991264939 5.13258179961113
39.5999991260469 5.11076843185
39.6199991255999 5.06965248315003
39.6399991251528 5.14413585787177
39.6599991247058 5.16580376118238
39.6799991242588 5.25602879488219
39.6999991238117 5.21997567337695
39.7199991233647 5.20434797214583
39.7399991229177 5.2637218540257
39.7599991224706 5.33481973818162
39.7799991220236 5.28203485339307
39.7999991215765 5.22421329014098
39.8199991211295 5.19175199000461
39.8399991206825 5.22375487089355
39.8599991202354 5.20942566883968
39.8799991197884 5.17776096807277
39.8999991193414 5.21609869279164
39.9199991188943 5.34852716306273
39.9399991184473 5.40341417979511
39.9599991180003 5.36750522878814
39.9799991175532 5.28759275204478
39.9999991171062 5.27513729230121
40.0199991166592 5.27962193288305
40.0399991162121 5.29729813474418
40.0599991157651 5.3254710841426
40.0799991153181 5.35020223087869
40.099999114871 5.27921649452466
40.119999114424 5.13805063797199
40.139999113977 5.00112537284872
40.1599991135299 4.99562762744468
40.1799991130829 5.02524549281798
40.1999991126359 5.08635311482134
40.2199991121888 5.13598997830093
40.2399991117418 5.11953552192525
40.2599991112947 5.08147834383135
40.2799991108477 5.11535401956766
40.2999991104007 5.19835981613059
40.3199991099536 5.21001290201808
40.3399991095066 5.12565230095986
40.3599991090596 5.07191693632139
40.3799991086125 5.08190744383497
40.3999991081655 5.09357270725845
40.4199991077185 5.03434983567354
40.4399991072714 5.06672223239697
40.4599991068244 5.09186254060848
40.4799991063774 5.24309962073964
40.4999991059303 5.29214167594569
40.5199991054833 5.27268879349748
40.5399991050363 5.17442422069269
40.5599991045892 5.12061712137329
40.5799991041422 5.12515082905991
40.5999991036952 5.15652255061515
40.6199991032481 5.13653533365829
40.6399991028011 5.14346708542488
40.6599991023541 5.17484085439174
40.679999101907 5.18333137630713
40.69999910146 5.23516859525561
40.7199991010129 5.22270908435573
40.7399991005659 5.25791945061868
40.7599991001189 5.18281486788702
40.7799990996718 5.12550558867517
40.7999990992248 5.07370503413431
40.8199990987778 5.11610538903854
40.8399990983307 5.21195742031313
40.8599990978837 5.19556455418585
40.8799990974367 5.12745865665816
40.8999990969896 5.08079622278807
40.9199990965426 5.15181052424629
40.9399990960956 5.17134737793668
40.9599990956485 5.11788781610025
40.9799990952015 5.02507023468631
40.9999990947545 5.07334784608439
41.0199990943074 5.18543657973648
41.0399990938604 5.24681826379907
41.0599990934134 5.23778324393333
41.0799990929663 5.14522434642163
41.0999990925193 5.13953480439097
41.1199990920722 5.08331388120629
41.1399990916252 5.08417473905265
41.1599990911782 5.03786677912305
41.1799990907311 5.09926481357872
41.1999990902841 5.09485781358221
41.2199990898371 5.17200084649346
41.23999908939 5.15047675513541
41.259999088943 5.23915379277607
41.279999088496 5.34397338072144
41.2999990880489 5.36883959352457
41.3199990876019 5.33012947342122
41.3399990871549 5.24754993179611
41.3599990867078 5.24919889235562
41.3799990862608 5.22393163374473
41.3999990858138 5.26908386665004
41.4199990853667 5.33854745996395
41.4399990849197 5.35084842991496
41.4599990844727 5.2866559696917
41.4799990840256 5.26275062455048
41.4999990835786 5.25616494514753
41.5199990831316 5.33311506283721
41.5399990826845 5.36407961996073
41.5599990822375 5.54658937493029
41.5799990817904 5.6581101934213
41.5999990813434 5.80222993046414
41.6199990808964 5.78124506491508
41.6399990804493 5.81970606752908
41.6599990800023 5.8042121405844
41.6799990795553 5.88664718131351
41.6999990791082 5.87011223712998
41.7199990786612 5.85268198579559
41.7399990782142 5.96106721845141
41.7599990777671 6.1201607675725
41.7799990773201 6.24199214322605
41.7999990768731 6.20382756960712
41.819999076426 6.21080713101338
41.839999075979 6.26398473037333
41.859999075532 6.33111758402221
41.8799990750849 6.41900271084548
41.8999990746379 6.51921783676445
41.9199990741909 6.71766475546495
41.9399990737438 6.83127317842941
41.9599990732968 6.8220624976776
41.9799990728498 6.72907591201123
41.9999990724027 6.67093741077164
42.0199990719557 6.66282505871393
42.0399990715086 6.63091158328727
42.0599990710616 6.6099372162074
42.0799990706146 6.58963454590668
42.0999990701675 6.5697422475218
42.1199990697205 6.44678856168261
42.1399990692735 6.30857698411792
42.1599990688264 6.20150798565745
42.1799990683794 6.08664518589989
42.1999990679324 6.06772112956593
42.2199990674853 5.98547238232501
42.2399990670383 5.94752005575482
42.2599990665913 5.86784001950718
42.2799990661442 5.78938449795109
42.2999990656972 5.65903771623048
42.3199990652502 5.51796951508217
42.3399990648031 5.44630169772238
42.3599990643561 5.36152473466278
42.3799990639091 5.40573896420649
42.399999063462 5.3738492346131
42.419999063015 5.36122832673914
42.4399990625679 5.27103608783729
42.4599990621209 5.22671784193043
42.4799990616739 5.19742293855948
42.4999990612268 5.19418115372601
42.5199990607798 5.21895281447215
42.5399990603328 5.16156671170703
42.5599990598857 5.15629679559276
42.5799990594387 5.14315134057725
42.5999990589917 5.22520786102275
42.6199990585446 5.27407222240081
42.6399990580976 5.26194542632746
42.6599990576506 5.26710205467609
42.6799990572035 5.28243498222412
42.6999990567565 5.28362531631039
42.7199990563095 5.22939867100704
42.7399990558624 5.18823961842957
42.7599990554154 5.18366722810885
42.7799990549684 5.18474415252756
42.7999990545213 5.1230416024402
42.8199990540743 5.09303950395648
42.8399990536273 5.13275897237234
42.8599990531802 5.16211818847098
42.8799990527332 5.16345507542625
42.8999990522861 5.08163749078367
42.9199990518391 5.06524040152991
42.9399990513921 5.07787660303888
42.959999050945 5.07738957535398
42.979999050498 5.09062891677554
42.999999050051 5.1187261397395
43.0199990496039 5.12692814180074
43.0399990491569 5.07957317754813
43.0599990487099 5.06660726882985
43.0799990482628 5.04001748312
43.0999990478158 5.0363513606023
43.1199990473688 4.9845716049607
43.1399990469217 5.00045049287833
43.1599990464747 5.02971437878781
43.1799990460277 5.05228782242501
43.1999990455806 5.07019495123211
43.2199990451336 5.06966023138499
43.2399990446866 5.13799038257685
43.2599990442395 5.12594640587567
43.2799990437925 5.13468257698962
43.2999990433455 5.14227954108941
43.3199990428984 5.20134345248721
43.3399990424514 5.2106691513492
43.3599990420043 5.20436504154079
43.3799990415573 5.11610080752577
43.3999990411103 5.02249730682708
43.4199990406632 4.93652662544775
43.4399990402162 5.0037956273556
43.4599990397692 5.07611868896454
43.4799990393221 5.05872354259325
43.4999990388751 5.00333225970298
43.5199990384281 5.04097699741515
43.539999037981 5.06735295089062
43.559999037534 5.12935662999806
43.579999037087 5.12344784192715
43.5999990366399 5.17596827325434
43.6199990361929 5.15983193648341
43.6399990357459 5.10281082067993
43.6599990352988 5.02622676884086
43.6799990348518 4.91899151160501
43.6999990344048 4.9720370927679
43.7199990339577 5.03903732723058
43.7399990335107 5.02681961561421
43.7599990330637 5.01678561784915
43.7799990326166 4.99097503096166
43.7999990321696 5.09994689730832
43.8199990317225 5.14969845888873
43.8399990312755 5.17418353914335
43.8599990308285 5.16471037111694
43.8799990303814 5.00919163914219
43.8999990299344 4.97182670710519
43.9199990294874 4.94100431011791
43.9399990290403 5.00977883897097
43.9599990285933 5.03461035474329
43.9799990281463 5.04314259247167
43.9999990276992 5.08040054361524
44.0199990272522 5.08196521874094
44.0399990268052 5.12476904680162
44.0599990263581 5.13619248772895
44.0799990259111 5.1649439718173
44.0999990254641 5.06775100738686
44.119999025017 5.06053314600501
44.13999902457 5.09739898004191
44.159999024123 5.19402242723306
44.1799990236759 5.17367585461195
44.1999990232289 5.11229955527933
44.2199990227818 5.14721914145527
44.2399990223348 5.09830919751266
44.2599990218878 5.15997455519814
44.2799990214407 5.14998375743509
44.2999990209937 5.21200922465794
44.3199990205467 5.22726306231404
44.3399990200996 5.32877035626247
44.3599990196526 5.4467689852571
44.3799990192056 5.44864944785704
44.3999990187585 5.41132477953466
44.4199990183115 5.4194314423263
44.4399990178645 5.50712280865361
44.4599990174174 5.63671112307819
44.4799990169704 5.70590319772385
44.4999990165234 5.71561820865451
44.5199990160763 5.89557458153124
44.5399990156293 6.04303808448652
44.5599990151823 6.17589840816495
44.5799990147352 6.06138278774054
44.5999990142882 5.94333618820623
44.6199990138412 5.89171245179775
44.6399990133941 5.83146419961389
44.6599990129471 5.79088865561183
44.6799990125 5.74378606644637
44.699999012053 5.84948547026293
44.719999011606 5.8628955324241
44.7399990111589 5.82561359093975
44.7599990107119 5.71089336006717
44.7799990102649 5.72450595559468
44.7999990098178 5.6933077075684
44.8199990093708 5.70812691921933
44.8399990089238 5.6268178838986
44.8599990084767 5.54885740485318
44.8799990080297 5.44423519195396
44.8999990075827 5.37422262025129
44.9199990071356 5.29205368181997
44.9399990066886 5.27886293459879
44.9599990062416 5.28067058225413
44.9799990057945 5.28409413644351
44.9999990053475 5.23488536181959
45.0199990049005 5.17366259439549
45.0399990044534 5.08913409188589
45.0599990040064 5.07368890731771
45.0799990035594 5.0502087180797
45.0999990031123 5.02477282760785
45.1199990026653 4.96964146920708
45.1399990022182 5.01192528494846
45.1599990017712 5.03076059311546
45.1799990013242 4.99093882945501
45.1999990008771 4.90684992684703
45.2199990004301 4.92476708956605
45.2399989999831 4.98927514819623
45.259998999536 5.04781027852136
45.279998999089 5.06926267468827
45.299998998642 5.03820224695597
45.3199989981949 4.92348323470081
45.3399989977479 4.77892016325857
45.3599989973009 4.8040316347477
45.3799989968538 4.9853001196735
45.3999989964068 5.02274772703814
45.4199989959598 5.0344425251328
45.4399989955127 5.00303589180649
45.4599989950657 5.0674713656989
45.4799989946187 5.11652279906787
45.4999989941716 5.06544062847541
45.5199989937246 5.08450435482079
45.5399989932776 5.05377793847974
45.5599989928305 5.04778375278564
45.5799989923835 4.94251494859428
45.5999989919364 4.85298229255685
45.6199989914894 4.89373069011361
45.6399989910424 4.96525921764924
45.6599989905953 4.95508154807863
45.6799989901483 4.90295058447117
45.6999989897013 4.89243634645881
45.7199989892542 4.92990129911247
45.7399989888072 4.96569370762763
45.7599989883602 4.95913115915535
45.7799989879131 4.9019323702805
45.7999989874661 4.84351721212543
45.8199989870191 4.91922817469059
45.839998986572 4.95743745930481
45.859998986125 4.99765039759941
45.879998985678 4.93033291874499
45.8999989852309 4.89296336759201
45.9199989847839 4.91731961427855
45.9399989843369 4.90888173893289
45.9599989838898 5.00987703124441
45.9799989834428 4.96746485007228
45.9999989829957 5.01475962750631
46.0199989825487 4.96712473606616
46.0399989821017 5.01952851404669
46.0599989816546 4.99181504116516
46.0799989812076 4.95525803453899
46.0999989807606 4.90895051646079
46.1199989803135 4.85973389117744
46.1399989798665 4.87449579173573
46.1599989794195 4.92960917285918
46.1799989789724 4.96879635638324
46.1999989785254 5.00578755235947
46.2199989780784 4.91977994946857
46.2399989776313 4.84948684519101
46.2599989771843 4.76962245839695
46.2799989767373 4.77558664893127
46.2999989762902 4.8424083168438
46.3199989758432 4.9347957959009
46.3399989753962 4.95368452752253
46.3599989749491 4.81513053213954
46.3799989745021 4.66298940878998
46.3999989740551 4.56027793753071
46.419998973608 4.65259238578449
46.439998973161 4.69055146131561
46.4599989727139 4.77540911808011
46.4799989722669 4.8389776535746
46.4999989718199 4.9395289404538
46.5199989713728 5.00589078182473
46.5399989709258 5.01401494348576
46.5599989704788 4.96288216107089
46.5799989700317 4.88367681255881
46.5999989695847 4.84690756832171
46.6199989691377 4.86325658022475
46.6399989686906 4.90896200124037
46.6599989682436 4.92851859782151
46.6799989677966 4.90127890876597
46.6999989673495 4.92077140866999
46.7199989669025 4.94839865668068
46.7399989664555 4.95935129314472
46.7599989660084 4.96316887482628
46.7799989655614 4.85552680575421
46.7999989651144 4.76962285138368
46.8199989646673 4.71024749943365
46.8399989642203 4.7504603195766
46.8599989637733 4.86045690620093
46.8799989633262 4.91293147666559
46.8999989628792 4.94244986113508
46.9199989624321 4.91966964704862
46.9399989619851 4.92896419613969
46.9599989615381 4.91102821055054
46.979998961091 4.89158632287517
46.999998960644 4.93698654692955
47.019998960197 4.97292863128005
47.0399989597499 5.0187403734095
47.0599989593029 5.00604053689884
47.0799989588559 5.00679802459351
47.0999989584088 5.0324063055096
47.1199989579618 5.03026069306701
47.1399989575148 4.98840186359802
47.1599989570677 4.91044294769198
47.1799989566207 4.89496380493915
47.1999989561737 4.8230260832383
47.2199989557266 4.80255472682793
47.2399989552796 4.74664199375257
47.2599989548326 4.81684338413703
47.2799989543855 4.91925213666535
47.2999989539385 5.04104011101301
47.3199989534914 5.03953016235112
47.3399989530444 5.00071430416929
47.3599989525974 4.93796301632325
47.3799989521503 4.91567695620737
47.3999989517033 4.8911730349076
47.4199989512563 4.84283115238573
47.4399989508092 4.86325109679647
47.4599989503622 4.81269809075445
47.4799989499152 4.85998148937863
47.4999989494681 4.79339435521821
47.5199989490211 4.79942243964521
47.5399989485741 4.82961846151141
47.559998948127 4.89490949057165
47.57999894768 4.91679260475735
47.599998947233 4.80471861856459
47.6199989467859 4.78670512759177
47.6399989463389 4.79365636019581
47.6599989458919 4.80279279356209
47.6799989454448 4.78813731089466
47.6999989449978 4.69260804505041
47.7199989445508 4.69444695841383
47.7399989441037 4.6958966102415
47.7599989436567 4.76906405015077
47.7799989432096 4.79872208969256
47.7999989427626 4.8336324041206
47.8199989423156 4.86689324153319
47.8399989418685 4.80154343277395
47.8599989414215 4.72327625217979
47.8799989409745 4.63647323233411
47.8999989405274 4.73673687435193
47.9199989400804 4.85305635840735
47.9399989396334 4.85292481412265
47.9599989391863 4.76693198840974
47.9799989387393 4.71244968187702
47.9999989382923 4.68837826769184
48.0199989378452 4.69101212041118
48.0399989373982 4.66347783627288
48.0599989369512 4.71761925711039
48.0799989365041 4.7471242664737
48.0999989360571 4.77584270857011
48.1199989356101 4.71109980733505
48.139998935163 4.68616551357072
48.159998934716 4.66395995689605
48.179998934269 4.81019477065309
48.1999989338219 4.84112432692435
48.2199989333749 4.78899052919873
48.2399989329278 4.71933376267349
48.2599989324808 4.73465126656735
48.2799989320338 4.74814201979546
48.2999989315867 4.70441566814988
48.3199989311397 4.66113697730869
48.3399989306927 4.67824119322666
48.3599989302456 4.6856130491238
48.3799989297986 4.66950582156849
48.3999989293516 4.66669652369091
48.4199989289045 4.62392787162979
48.4399989284575 4.60819612926251
48.4599989280105 4.63062886688471
48.4799989275634 4.67946646821196
48.4999989271164 4.74660040091984
48.5199989266694 4.75097009448708
48.5399989262223 4.77244028094981
48.5599989257753 4.77972756652884
48.5799989253283 4.77681046855798
48.5999989248812 4.7805830703423
48.6199989244342 4.73617251246005
48.6399989239872 4.80360633737102
48.6599989235401 4.80639779010666
48.6799989230931 4.85847329458999
48.699998922646 4.78770900475094
48.719998922199 4.74245616026847
48.739998921752 4.72543803676483
48.7599989213049 4.72913109097055
48.7799989208579 4.74406156799519
48.7999989204109 4.67914953615599
48.8199989199638 4.652921860311
48.8399989195168 4.6352787899406
48.8599989190698 4.59264296273392
48.8799989186227 4.60670987416305
48.8999989181757 4.57587890200455
48.9199989177287 4.65240450387658
48.9399989172816 4.68734464314516
48.9599989168346 4.66971510437401
48.9799989163876 4.59634851561286
48.9999989159405 4.54170909429253
49.0199989154935 4.57746472103366
49.0399989150465 4.63155082026188
49.0599989145994 4.63843252469835
49.0799989141524 4.62262305711958
49.0999989137053 4.65485618252983
49.1199989132583 4.61546723590751
49.1399989128113 4.55979776431334
49.1599989123642 4.54788052266842
49.1799989119172 4.63069482438634
49.1999989114702 4.72007057463746
49.2199989110231 4.65255246731035
49.2399989105761 4.58821848599503
49.2599989101291 4.6086646004061
49.279998909682 4.65658618483503
49.299998909235 4.71642389312952
49.319998908788 4.66072055473121
49.3399989083409 4.63244732876513
49.3599989078939 4.61171403112782
49.3799989074469 4.63607136899212
49.3999989069998 4.73159835143819
49.4199989065528 4.79142645827887
49.4399989061058 4.80987776173586
49.4599989056587 4.69642230455399
49.4799989052117 4.6762662771089
49.4999989047647 4.71737576818011
49.5199989043176 4.69226847138727
49.5399989038706 4.65372120823199
49.5599989034235 4.64644757818118
49.5799989029765 4.73116667306204
49.5999989025295 4.66933391082034
49.6199989020824 4.58078723946535
49.6399989016354 4.57424465304159
49.6599989011884 4.62965310817994
49.6799989007413 4.63253897407688
49.6999989002943 4.60072222107305
49.7199988998473 4.59418015563901
49.7399988994002 4.64704912703005
49.7599988989532 4.64554959072473
49.7799988985062 4.5970367832515
49.7999988980591 4.59004569465795
49.8199988976121 4.5452587568181
49.8399988971651 4.53108400321055
49.859998896718 4.55083815559565
49.879998896271 4.55903986887926
49.899998895824 4.60021558094811
49.9199988953769 4.57111551214482
49.9399988949299 4.56544103848821
49.9599988944829 4.56040020518265
49.9799988940358 4.56091287597735
49.9999988935888 4.60597375344883
50.0199988931417 4.64068623377946
50.0399988926947 4.61062205119565
50.0599988922477 4.58146637890603
50.0799988918006 4.54352500029323
50.0999988913536 4.52972018956341
50.1199988909066 4.60540455238703
50.1399988904595 4.66377053402989
50.1599988900125 4.68352342836219
50.1799988895655 4.62336965968307
50.1999988891184 4.56641942707277
50.2199988886714 4.50085634683946
50.2399988882244 4.47354314524908
50.2599988877773 4.42963903575831
50.2799988873303 4.55940400890844
50.2999988868833 4.599122594716
50.3199988864362 4.62081467566578
50.3399988859892 4.54459207822136
50.3599988855422 4.55292037926947
50.3799988850951 4.59501216639354
50.3999988846481 4.63826320738769
50.4199988842011 4.63657056236451
50.439998883754 4.64826050650704
50.459998883307 4.62676836183655
50.4799988828599 4.61879194292312
50.4999988824129 4.5743164356091
50.5199988819659 4.65669983947089
50.5399988815188 4.74735304283362
50.5599988810718 4.79344741275586
50.5799988806248 4.74722439426063
50.5999988801777 4.63387647500882
50.6199988797307 4.60569552899207
50.6399988792837 4.53458764660405
50.6599988788366 4.52226988429066
50.6799988783896 4.45924775267042
50.6999988779426 4.45107099451939
50.7199988774955 4.44698326749501
50.7399988770485 4.523962521582
50.7599988766015 4.55812271901097
50.7799988761544 4.58826009966545
50.7999988757074 4.47364610296993
50.8199988752604 4.44203910796594
50.8399988748133 4.51014253856064
50.8599988743663 4.63968785080548
50.8799988739192 4.69651328725979
50.8999988734722 4.61053347267401
50.9199988730252 4.53106439517465
50.9399988725781 4.48236406963002
50.9599988721311 4.49596285374772
50.9799988716841 4.56238523025234
50.999998871237 4.63871846377992
51.01999887079 4.64157251238284
51.039998870343 4.59377041292123
51.0599988698959 4.48538521570069
51.0799988694489 4.41823283408114
51.0999988690019 4.37575415233936
51.1199988685548 4.39888535451295
51.1399988681078 4.48022002445195
51.1599988676608 4.48175334291918
51.1799988672137 4.48538756852202
51.1999988667667 4.45790629509836
51.2199988663197 4.46441168549392
51.2399988658726 4.46069724091592
51.2599988654256 4.39204014520247
51.2799988649786 4.41476068627706
51.2999988645315 4.37424796117758
51.3199988640845 4.45712486835208
51.3399988636374 4.46122313048057
51.3599988631904 4.52824922179427
51.3799988627434 4.53273310882668
51.3999988622963 4.5131215833912
51.4199988618493 4.47145641505287
51.4399988614023 4.43458487717303
51.4599988609552 4.49893330682374
51.4799988605082 4.53719125434917
51.4999988600612 4.54218218414905
51.5199988596141 4.50266139206324
51.5399988591671 4.56617236826791
51.5599988587201 4.62670480590452
51.579998858273 4.67603251093816
51.599998857826 4.6486665934065
51.619998857379 4.65747456455137
51.6399988569319 4.71362506617765
51.6599988564849 4.75903386971864
51.6799988560379 4.74144553162069
51.6999988555908 4.73977293453139
51.7199988551438 4.77069130212395
51.7399988546968 4.7975560796783
51.7599988542497 4.75386066642141
51.7799988538027 4.73963489199377
51.7999988533556 4.78438017956936
51.8199988529086 4.85541675690001
51.8399988524616 4.82498341472428
51.8599988520145 4.7803302408908
51.8799988515675 4.69071002086734
51.8999988511205 4.70946435847133
51.9199988506734 4.7466917239453
51.9399988502264 4.82162368194351
51.9599988497794 4.84429053170497
51.9799988493323 4.91384189406355
51.9999988488853 4.9134720697196
52.0199988484383 4.91913696029851
52.0399988479912 4.78719061589044
52.0599988475442 4.75301499839111
52.0799988470972 4.71256649343425
52.0999988466501 4.67917724080975
52.1199988462031 4.67245003531288
52.1399988457561 4.60925897540764
52.159998845309 4.65816147617113
52.179998844862 4.68076951076322
52.1999988444149 4.74021957961133
52.2199988439679 4.66476980740672
52.2399988435209 4.60361341766419
52.2599988430738 4.51327694732539
52.2799988426268 4.48435251425877
52.2999988421798 4.48760940275745
52.3199988417327 4.54637987093423
52.3399988412857 4.55066720680737
52.3599988408387 4.50566412036017
52.3799988403916 4.42648563857439
52.3999988399446 4.47053112704615
52.4199988394976 4.50553826244913
52.4399988390505 4.58276822199123
52.4599988386035 4.51457182098972
52.4799988381565 4.45802775460697
52.4999988377094 4.40713897286048
52.5199988372624 4.4536357767591
52.5399988368154 4.45224476041606
52.5599988363683 4.42330477164794
52.5799988359213 4.40788392091697
52.5999988354743 4.46997199540498
52.6199988350272 4.53061192136343
52.6399988345802 4.58288019944089
52.6599988341331 4.56296403719734
52.6799988336861 4.62206496445194
52.6999988332391 4.65592574514279
52.719998832792 4.70890755399238
52.739998832345 4.60974437519705
52.759998831898 4.54341437147245
52.7799988314509 4.46962523600888
52.7999988310039 4.46673201553437
52.8199988305569 4.47047395000158
52.8399988301098 4.4508098269248
52.8599988296628 4.44312408917687
52.8799988292158 4.46182709004639
52.8999988287687 4.4933249390232
52.9199988283217 4.53745211773917
52.9399988278747 4.49373740786729
52.9599988274276 4.52754795005313
52.9799988269806 4.46214867055144
52.9999988265336 4.46935006442981
53.0199988260865 4.40072352429086
53.0399988256395 4.4465477257537
53.0599988251925 4.52996242684089
53.0799988247454 4.5740133506682
53.0999988242984 4.58818043426307
53.1199988238513 4.55375773949926
53.1399988234043 4.52691684705039
53.1599988229573 4.54526030733349
53.1799988225102 4.61662921149404
53.1999988220632 4.59409462882608
53.2199988216162 4.47740188372575
53.2399988211691 4.33778580638616
53.2599988207221 4.3704365793833
53.2799988202751 4.3906149988207
53.299998819828 4.41084072895429
53.319998819381 4.36337921635078
53.339998818934 4.42734649224153
53.3599988184869 4.43647738664043
53.3799988180399 4.50673424508265
53.3999988175929 4.45014708103221
53.4199988171458 4.40277609049467
53.4399988166988 4.32887849791785
53.4599988162518 4.37584104151581
53.4799988158047 4.3910263027566
53.4999988153577 4.42351009682653
53.5199988149107 4.48714070021505
53.5399988144636 4.60113051064426
53.5599988140166 4.6584396002711
53.5799988135695 4.59458172241688
53.5999988131225 4.53560286140727
53.6199988126755 4.47456588795467
53.6399988122284 4.4520219859732
53.6599988117814 4.44824519371089
53.6799988113344 4.5149937320901
53.6999988108873 4.47130897324016
53.7199988104403 4.42085400400864
53.7399988099933 4.38786346637129
53.7599988095462 4.4175612273742
53.7799988090992 4.45594330994356
53.7999988086522 4.42778853456658
53.8199988082051 4.40217129865753
53.8399988077581 4.43854185598162
53.8599988073111 4.48853136835631
53.879998806864 4.54855677507919
53.899998806417 4.59854878657511
53.91999880597 4.59679088880957
53.9399988055229 4.53200225790053
53.9599988050759 4.48980461438212
53.9799988046288 4.46246696211427
53.9999988041818 4.58993683054936
54.0199988037348 4.56837301746296
54.0399988032877 4.58904616408407
54.0599988028407 4.50143672370234
54.0799988023937 4.46555117994619
54.0999988019466 4.47919755093017
54.1199988014996 4.51694673258954
54.1399988010526 4.57407637080967
54.1599988006055 4.56065466014913
54.1799988001585 4.53801198632059
54.1999987997115 4.5232449213038
54.2199987992644 4.51351328432845
54.2399987988174 4.54352843908854
54.2599987983704 4.54576250201984
54.2799987979233 4.56045414747718
54.2999987974763 4.53309281279025
54.3199987970293 4.5356942036189
54.3399987965822 4.49850545079585
54.3599987961352 4.55305078840763
54.3799987956882 4.58487043390944
54.3999987952411 4.65216689663131
54.4199987947941 4.62133558146393
54.439998794347 4.61703763130898
54.4599987939 4.54615479685992
54.479998793453 4.52249992560846
54.4999987930059 4.5286698143156
54.5199987925589 4.52463725219217
54.5399987921119 4.49243500349066
54.5599987916648 4.45308328765115
54.5799987912178 4.4884289269347
54.5999987907708 4.44237456080746
54.6199987903237 4.41505548391756
54.6399987898767 4.38469377641044
54.6599987894297 4.48409054258843
54.6799987889826 4.49935720559323
54.6999987885356 4.49720990289799
54.7199987880886 4.43536942278199
54.7399987876415 4.4494589047114
54.7599987871945 4.35920995745398
54.7799987867475 4.39136430719128
54.7999987863004 4.39748867570136
54.8199987858534 4.52647145278631
54.8399987854064 4.54019388505675
54.8599987849593 4.4448787886277
54.8799987845123 4.39144390976419
54.8999987840652 4.37059716772689
54.9199987836182 4.48884789652852
54.9399987831712 4.59039989774224
54.9599987827241 4.65369691225607
54.9799987822771 4.64956300966808
54.9999987818301 4.59254165678284
55.019998781383 4.48367238345474
55.039998780936 4.36130770457869
55.059998780489 4.33638735324322
55.0799987800419 4.41032188268341
55.0999987795949 4.50825105828033
55.1199987791479 4.51468936344852
55.1399987787008 4.42526079780959
55.1599987782538 4.43145118252115
55.1799987778068 4.4646778297144
55.1999987773597 4.50844517089891
55.2199987769127 4.44018048854572
55.2399987764657 4.39777859743088
55.2599987760186 4.49886447532097
55.2799987755716 4.59541569674117
55.2999987751246 4.56485610965289
55.3199987746775 4.40226287157102
55.3399987742305 4.25190775474535
55.3599987737834 4.24534755553128
55.3799987733364 4.34216520439087
55.3999987728894 4.43141614146968
55.4199987724423 4.48706239554315
55.4399987719953 4.46518390034053
55.4599987715483 4.52252786705478
55.4799987711012 4.60590630867232
55.4999987706542 4.71909550916683
55.5199987702072 4.87425813575853
55.5399987697601 4.89256954776396
55.5599987693131 4.91340337764879
55.5799987688661 4.81649625451353
55.599998768419 4.82078885778161
55.619998767972 4.81877514574487
55.639998767525 4.84211223097247
55.6599987670779 4.76529263686557
55.6799987666309 4.68715591528551
55.6999987661839 4.61736408941774
55.7199987657368 4.57968704334745
55.7399987652898 4.63003374697344
55.7599987648427 4.63778846873265
55.7799987643957 4.69563060351093
55.7999987639487 4.74936739807892
55.8199987635016 4.71866392506799
55.8399987630546 4.60070617041987
55.8599987626076 4.50945258157609
55.8799987621605 4.55962925997594
55.8999987617135 4.72877078711159
55.9199987612665 4.7441707770514
55.9399987608194 4.72932471338914
55.9599987603724 4.67670964596601
55.9799987599254 4.73526779173236
55.9999987594783 4.81435799002286
56.0199987590313 4.78422432883833
56.0399987585843 4.73800529848122
56.0599987581372 4.60402152764111
56.0799987576902 4.73227544133923
56.0999987572432 4.78534414800664
56.1199987567961 5.06124863884788
56.1399987563491 5.03731898457666
56.1599987559021 5.06142749842844
56.179998755455 4.89765733920441
56.199998755008 4.92807253612899
56.2199987545609 5.00698531530055
56.2399987541139 4.98596544007011
56.2599987536669 4.83790814011463
56.2799987532198 4.79028821229169
56.2999987527728 4.86609098686593
56.3199987523258 5.06178824108664
56.3399987518787 5.06848827844714
56.3599987514317 5.15361620251089
56.3799987509847 5.22506516466799
56.3999987505376 5.30447731461914
56.4199987500906 5.17413066098032
56.4399987496436 4.92774649961032
56.4599987491965 4.93004313902529
56.4799987487495 5.18133827329603
56.4999987483025 5.43116016523951
56.5199987478554 5.45223414432774
56.5399987474084 5.28707188368988
56.5599987469614 5.20617377621896
56.5799987465143 5.44006134389446
56.5999987460673 5.68042530787004
56.6199987456203 5.92607049108606
56.6399987451732 5.89267663345493
56.6599987447262 5.84358214337652
56.6799987442791 5.50789898902618
56.6999987438321 5.18756988487216
56.7199987433851 5.37196456756079
56.739998742938 5.41615311214315
56.759998742491 5.49432025716289
56.779998742044 5.69186465220119
56.7999987415969 6.17243442620596
56.8199987411499 5.91961645285076
56.8399987407029 5.77231766023924
56.8599987402558 5.58492557796025
56.8799987398088 5.71249397440985
56.8999987393618 4.7288614901064
