'Id: "" Comment: "Integrate frame 2018_8-7 FAGACs_3p75PEAI001.gfrmwith cursor Full Frame Cursor #7" Operator: "MAF user" Anode: "Cu" Scantype: "TwoTheta" TimePerStep: "90" 
10.7399997711182 6.51646421996291
10.7599997706711 6.37539000342462
10.7799997702241 6.40405441984137
10.7999997697771 6.48639544085364
10.81999976933 6.25836230336488
10.839999768883 6.15189944766763
10.859999768436 5.96951304930128
10.8799997679889 5.72258023909093
10.8999997675419 5.28858637944522
10.9199997670949 5.11861353678527
10.9399997666478 5.04253152402768
10.9599997662008 5.25091599490804
10.9799997657537 5.43310063487334
10.9999997653067 5.23515280128703
11.0199997648597 4.96670678226557
11.0399997644126 4.70328295731427
11.0599997639656 4.823966889166
11.0799997635186 5.02814098230605
11.0999997630715 5.11773808831904
11.1199997626245 4.9947192500542
11.1399997621775 4.81598170807288
11.1599997617304 4.78459377900518
11.1799997612834 4.65244396384744
11.1999997608364 4.68335103581492
11.2199997603893 4.74475100766632
11.2399997599423 4.93055290215629
11.2599997594953 4.87094766409672
11.2799997590482 4.75169645913118
11.2999997586012 4.75427077131422
11.3199997581542 4.90837902120417
11.3399997577071 5.0307716421543
11.3599997572601 4.88108086323086
11.379999756813 4.85881593029786
11.399999756366 4.82596124574686
11.419999755919 4.96338539453641
11.4399997554719 4.90807611475415
11.4599997550249 4.89243926604797
11.4799997545779 4.96695039199039
11.4999997541308 4.88756589472573
11.5199997536838 4.78645316306575
11.5399997532368 4.6374490074236
11.5599997527897 4.65150609908712
11.5799997523427 4.68711361146412
11.5999997518957 4.75946101608636
11.6199997514486 4.83569759291382
11.6399997510016 4.81472174390437
11.6599997505546 4.77824560252602
11.6799997501075 4.79504537367709
11.6999997496605 4.95093365706304
11.7199997492135 5.00088754239224
11.7399997487664 4.90637823625427
11.7599997483194 4.69184543504013
11.7799997478724 4.6558428229064
11.7999997474253 4.77837814265321
11.8199997469783 4.87864320370659
11.8399997465312 4.98463161910378
11.8599997460842 4.94618318433854
11.8799997456372 4.9585033154808
11.8999997451901 4.87092640399345
11.9199997447431 4.86580318106928
11.9399997442961 4.9118875716021
11.959999743849 4.86928637467052
11.979999743402 4.94827226301006
11.999999742955 4.92889521918054
12.0199997425079 5.04183377020889
12.0399997420609 5.04417705752971
12.0599997416139 5.0023923138461
12.0799997411668 4.98072101330525
12.0999997407198 4.958939488097
12.1199997402728 4.86729098038602
12.1399997398257 4.71943405674079
12.1599997393787 4.63342635091452
12.1799997389317 4.67561266988081
12.1999997384846 4.75267547639678
12.2199997380376 4.81651707481588
12.2399997375906 4.84580038744361
12.2599997371435 4.81483846309188
12.2799997366965 4.82836967809457
12.2999997362494 4.85868776907568
12.3199997358024 4.92114344771254
12.3399997353554 4.93486028327531
12.3599997349083 4.91123420002726
12.3799997344613 4.8240774166804
12.3999997340143 4.76697629250938
12.4199997335672 4.75229948868679
12.4399997331202 4.74576515709005
12.4599997326732 4.68977245653516
12.4799997322261 4.71904810153969
12.4999997317791 4.82795546098309
12.5199997313321 4.91302671978233
12.539999730885 4.94657825956105
12.559999730438 4.9813584015349
12.579999729991 5.01558356815512
12.5999997295439 4.96057972597138
12.6199997290969 4.83382618555052
12.6399997286499 4.85774604082331
12.6599997282028 4.98439590833077
12.6799997277558 5.08632691817402
12.6999997273088 5.05658410614251
12.7199997268617 4.9963010540937
12.7399997264147 5.00058112557942
12.7599997259676 4.91999129836941
12.7799997255206 4.85376491048644
12.7999997250736 4.80363638335713
12.8199997246265 4.84113077013801
12.8399997241795 4.87474778950292
12.8599997237325 4.92326457590271
12.8799997232854 5.01855162202814
12.8999997228384 5.05758948685481
12.9199997223914 5.04736506841242
12.9399997219443 4.89065689245238
12.9599997214973 4.78960203825862
12.9799997210503 4.7484143900404
12.9999997206032 4.83953043964922
13.0199997201562 4.89255423460297
13.0399997197092 4.92116310313183
13.0599997192621 4.95549018871314
13.0799997188151 4.92675769901117
13.0999997183681 4.95380509553965
13.119999717921 4.99363410514148
13.139999717474 5.0932965667773
13.1599997170269 5.04903221887665
13.1799997165799 5.00546967824047
13.1999997161329 4.94753689512986
13.2199997156858 5.0319353433781
13.2399997152388 5.07258951289749
13.2599997147918 5.06372678646842
13.2799997143447 5.00737849568622
13.2999997138977 5.01849032071558
13.3199997134507 5.01750546230834
13.3399997130036 5.01110386634616
13.3599997125566 4.98166547746874
13.3799997121096 4.97285262940308
13.3999997116625 4.94798905129633
13.4199997112155 4.95938024771449
13.4399997107685 5.02516828483951
13.4599997103214 5.08024118719123
13.4799997098744 5.13113179571985
13.4999997094274 5.16281962282266
13.5199997089803 5.12999987821605
13.5399997085333 5.06199502208676
13.5599997080863 4.9768379386542
13.5799997076392 4.96993829840738
13.5999997071922 5.0601687913016
13.6199997067451 5.09928132157366
13.6399997062981 5.05860957060284
13.6599997058511 5.08115731056856
13.679999705404 5.16976612773967
13.699999704957 5.21178187936911
13.71999970451 5.19823437418851
13.7399997040629 5.21021019457766
13.7599997036159 5.22930076706682
13.7799997031689 5.26197073873809
13.7999997027218 5.26375685227389
13.8199997022748 5.20654793064772
13.8399997018278 5.1840130371
13.8599997013807 5.14536865420889
13.8799997009337 5.2250948994136
13.8999997004867 5.31276631701719
13.9199997000396 5.44436503582137
13.9399996995926 5.45370760288228
13.9599996991456 5.46812039343036
13.9799996986985 5.46861344235095
13.9999996982515 5.51743010495837
14.0199996978045 5.55463338094111
14.0399996973574 5.59188027121662
14.0599996969104 5.60241630746888
14.0799996964633 5.65720763526418
14.0999996960163 5.6842031835001
14.1199996955693 5.73241893738473
14.1399996951222 5.68612523549192
14.1599996946752 5.69103069573961
14.1799996942282 5.70792724057193
14.1999996937811 5.80129754430254
14.2199996933341 5.95780892609574
14.2399996928871 5.99050766270949
14.25999969244 5.98115256794717
14.279999691993 5.97222723520471
14.299999691546 6.02530641907466
14.3199996910989 6.08829863342846
14.3399996906519 6.2398825505456
14.3599996902049 6.28130309612141
14.3799996897578 6.38630910536411
14.3999996893108 6.49970222162557
14.4199996888638 6.55607144321151
14.4399996884167 6.66023086701869
14.4599996879697 6.94674098772187
14.4799996875226 7.19339591359295
14.4999996870756 7.35233096748144
14.5199996866286 7.57294744746053
14.5399996861815 7.79700687687694
14.5599996857345 8.02335572134208
14.5799996852875 8.28542474098134
14.5999996848404 8.51894362822189
14.6199996843934 8.70246601944294
14.6399996839464 9.0907587326365
14.6599996834993 9.60761152757504
14.6799996830523 10.10423402678
14.6999996826053 10.5415815837275
14.7199996821582 10.8977595194443
14.7399996817112 11.213868101171
14.7599996812642 11.3823041545221
14.7799996808171 11.4629640670041
14.7999996803701 11.4382187509467
14.8199996799231 11.3254679871083
14.839999679476 11.2369351306509
14.859999679029 11.0790173169263
14.879999678582 10.7580041892878
14.8999996781349 10.3781112664504
14.9199996776879 9.98008785956178
14.9399996772408 9.49010619749132
14.9599996767938 8.97380223719271
14.9799996763468 8.58608315747888
14.9999996758997 8.10699215177296
15.0199996754527 7.72539255595603
15.0399996750057 7.48747719189092
15.0599996745586 7.28269273854064
15.0799996741116 7.03468000373245
15.0999996736646 6.71896966469434
15.1199996732175 6.343341456443
15.1399996727705 6.14369169450464
15.1599996723235 6.08456771629128
15.1799996718764 5.97738815879179
15.1999996714294 5.83793206359337
15.2199996709824 5.73103373618758
15.2399996705353 5.59562327702569
15.2599996700883 5.52742973674266
15.2799996696413 5.50978363894178
15.2999996691942 5.49060089940353
15.3199996687472 5.46420504927116
15.3399996683002 5.42570593764877
15.3599996678531 5.47497166811909
15.3799996674061 5.36279352965862
15.399999666959 5.27625801926666
15.419999666512 5.19715186512757
15.439999666065 5.19095477907014
15.4599996656179 5.15955315628122
15.4799996651709 5.15165100231451
15.4999996647239 5.17347769945064
15.5199996642768 5.20030065715167
15.5399996638298 5.18899835067412
15.5599996633828 5.17134145074312
15.5799996629357 5.15372387450273
15.5999996624887 5.13428312615786
15.6199996620417 5.04799979845371
15.6399996615946 5.09393331485069
15.6599996611476 5.15395637246665
15.6799996607006 5.12158837548214
15.6999996602535 5.00654538102144
15.7199996598065 4.95755749463511
15.7399996593595 4.98250675146348
15.7599996589124 4.95269090307255
15.7799996584654 4.91413543532252
15.7999996580184 4.9469596150575
15.8199996575713 5.02639374256066
15.8399996571243 5.09332448544278
15.8599996566772 5.07954582930975
15.8799996562302 5.03743773008918
15.8999996557832 4.9931905396144
15.9199996553361 4.97628630886941
15.9399996548891 4.95820883467074
15.9599996544421 4.99887188501969
15.979999653995 5.05069394967375
15.999999653548 5.07425634317882
16.019999653101 5.08164083150248
16.0399996526539 5.08054829115718
16.0599996522069 5.02890333676165
16.0799996517599 5.01841022342055
16.0999996513128 5.04851743191605
16.1199996508658 5.11865895737257
16.1399996504188 5.11828667273743
16.1599996499717 5.16164777593671
16.1799996495247 5.19178316890945
16.1999996490777 5.17337856427133
16.2199996486306 5.08685045763648
16.2399996481836 5.04794542035196
16.2599996477365 5.05517967003996
16.2799996472895 5.05607483820958
16.2999996468425 5.04750399069729
16.3199996463954 5.00959495801341
16.3399996459484 5.00964628200323
16.3599996455014 4.99433280698773
16.3799996450543 4.99688053802311
16.3999996446073 5.03110392557819
16.4199996441603 5.05388060728267
16.4399996437132 5.04364740885872
16.4599996432662 5.00844983827615
16.4799996428192 5.07173119529173
16.4999996423721 5.10929737542483
16.5199996419251 5.12231543497366
16.5399996414781 5.06347702931501
16.559999641031 5.08293477171086
16.579999640584 5.11744752670038
16.599999640137 5.18133917735877
16.6199996396899 5.17739521785563
16.6399996392429 5.13858319101399
16.6599996387959 5.09369354225026
16.6799996383488 5.06400053955142
16.6999996379018 5.01848884702003
16.7199996374547 5.06534377025656
16.7399996370077 5.16906343696199
16.7599996365607 5.19657685191296
16.7799996361136 5.17181944331362
16.7999996356666 5.10955734244161
16.8199996352196 5.12719948802883
16.8399996347725 5.16672706438856
16.8599996343255 5.18973615106474
16.8799996338785 5.17712950114263
16.8999996334314 5.13930322587331
16.9199996329844 5.13180224546823
16.9399996325374 5.10606138259659
16.9599996320903 5.12630616557307
16.9799996316433 5.1694726150314
16.9999996311963 5.19243997359403
17.0199996307492 5.1272659784638
17.0399996303022 5.04017116958752
17.0599996298552 5.02257715992192
17.0799996294081 5.10283958838228
17.0999996289611 5.1251762727652
17.1199996285141 5.15558398733432
17.139999628067 5.15372701017411
17.15999962762 5.17742549518963
17.1799996271729 5.12329882063227
17.1999996267259 5.07077161260636
17.2199996262789 5.08013185116247
17.2399996258318 5.08165605187664
17.2599996253848 5.08423255015679
17.2799996249378 5.08265171772798
17.2999996244907 5.11324367487829
17.3199996240437 5.12947390823175
17.3399996235967 5.20366064940726
17.3599996231496 5.24125964658868
17.3799996227026 5.27578142844218
17.3999996222556 5.2302576620596
17.4199996218085 5.17897014810169
17.4399996213615 5.17001511648747
17.4599996209145 5.1695038083287
17.4799996204674 5.13349278725522
17.4999996200204 5.05714312820776
17.5199996195734 5.05813577893969
17.5399996191263 5.07899635979465
17.5599996186793 5.02408232602833
17.5799996182323 5.02912253232537
17.5999996177852 5.12819397141004
17.6199996173382 5.23703304009507
17.6399996168911 5.26725429376452
17.6599996164441 5.27292415645906
17.6799996159971 5.25896863288397
17.69999961555 5.23846090244877
17.719999615103 5.21177510061608
17.739999614656 5.27245009373701
17.7599996142089 5.29867386308374
17.7799996137619 5.33703506702708
17.7999996133149 5.2890565040404
17.8199996128678 5.28677054684204
17.8399996124208 5.29423665308066
17.8599996119738 5.32282933721306
17.8799996115267 5.33339542368384
17.8999996110797 5.31852649492302
17.9199996106327 5.27391639946483
17.9399996101856 5.23995469864988
17.9599996097386 5.24454907365763
17.9799996092916 5.27711206377706
17.9999996088445 5.25986083900232
18.0199996083975 5.24201153816542
18.0399996079504 5.198658946879
18.0599996075034 5.16545629108698
18.0799996070564 5.19615770374569
18.0999996066093 5.25783765533782
18.1199996061623 5.27921614075289
18.1399996057153 5.3284741480878
18.1599996052682 5.35893406486847
18.1799996048212 5.387791219684
18.1999996043742 5.36734212844309
18.2199996039271 5.37129642117455
18.2399996034801 5.31460547901824
18.2599996030331 5.27972497977364
18.279999602586 5.33350322921851
18.299999602139 5.37539040973699
18.319999601692 5.37696744786522
18.3399996012449 5.35291289362818
18.3599996007979 5.35576542965558
18.3799996003509 5.37046866193096
18.3999995999038 5.37594622943153
18.4199995994568 5.40765957147149
18.4399995990098 5.40455607830004
18.4599995985627 5.39890924343235
18.4799995981157 5.359149870731
18.4999995976686 5.33405640018569
18.5199995972216 5.36296480425618
18.5399995967746 5.41079030157704
18.5599995963275 5.47710980919658
18.5799995958805 5.51836715220765
18.5999995954335 5.51323689254721
18.6199995949864 5.4734225157046
18.6399995945394 5.43856072764425
18.6599995940924 5.44396704915712
18.6799995936453 5.47151960910317
18.6999995931983 5.52036954778095
18.7199995927513 5.56317756249214
18.7399995923042 5.5984645153753
18.7599995918572 5.62444568999987
18.7799995914102 5.63555919036288
18.7999995909631 5.60054299121638
18.8199995905161 5.55907957521707
18.8399995900691 5.52794490051095
18.859999589622 5.5656275427221
18.879999589175 5.63842380009013
18.899999588728 5.6185732782021
18.9199995882809 5.57986234047478
18.9399995878339 5.50480713623563
18.9599995873868 5.4761589190188
18.9799995869398 5.47036052893235
18.9999995864928 5.50069610867328
19.0199995860457 5.56004930603379
19.0399995855987 5.58830944125793
19.0599995851517 5.61122119181749
19.0799995847046 5.6136671404574
19.0999995842576 5.6656267571586
19.1199995838106 5.69116475080764
19.1399995833635 5.69589360722684
19.1599995829165 5.71637749096635
19.1799995824695 5.75689355728368
19.1999995820224 5.78977335333867
19.2199995815754 5.74740860784418
19.2399995811284 5.69173825757968
19.2599995806813 5.6420857231629
19.2799995802343 5.66711970307992
19.2999995797873 5.71175430488631
19.3199995793402 5.73444279972658
19.3399995788932 5.75621830931381
19.3599995784462 5.79097955134794
19.3799995779991 5.80768128050093
19.3999995775521 5.78674049942854
19.419999577105 5.79167731882386
19.439999576658 5.79089906825316
19.459999576211 5.79546994223796
19.4799995757639 5.81368135180731
19.4999995753169 5.8154787598265
19.5199995748699 5.81883230905283
19.5399995744228 5.80913537250683
19.5599995739758 5.80541803759637
19.5799995735288 5.88477299913936
19.5999995730817 5.98213110656223
19.6199995726347 6.01280349264351
19.6399995721877 5.99853092393659
19.6599995717406 5.96638109012147
19.6799995712936 5.9091558973461
19.6999995708466 5.91806658349593
19.7199995703995 5.91217634044519
19.7399995699525 5.92790438472592
19.7599995695055 5.94808525323637
19.7799995690584 5.93647449691729
19.7999995686114 5.88089922202488
19.8199995681643 5.83259094290248
19.8399995677173 5.89887517450886
19.8599995672703 5.98313331279477
19.8799995668232 6.01063154429221
19.8999995663762 5.96465467052538
19.9199995659292 5.93714389056102
19.9399995654821 6.03149849226666
19.9599995650351 6.07659245522174
19.9799995645881 6.07486227315565
19.999999564141 5.98557681003842
20.019999563694 5.96213395759355
20.039999563247 5.96845574422952
20.0599995627999 6.06386189994152
20.0799995623529 6.14287508410742
20.0999995619059 6.20001273278691
20.1199995614588 6.19881950468253
20.1399995610118 6.18731290482172
20.1599995605648 6.14367738025738
20.1799995601177 6.1777411523374
20.1999995596707 6.18912599950827
20.2199995592237 6.22195582946204
20.2399995587766 6.26340585409788
20.2599995583296 6.24535490044066
20.2799995578825 6.2704619060981
20.2999995574355 6.24653240584284
20.3199995569885 6.29074095948632
20.3399995565414 6.33347623447571
20.3599995560944 6.35514935075178
20.3799995556474 6.35720246776346
20.3999995552003 6.33297353015271
20.4199995547533 6.36060306139536
20.4399995543063 6.39920527034993
20.4599995538592 6.4269488798758
20.4799995534122 6.45496517349838
20.4999995529652 6.43334607992023
20.5199995525181 6.46994733800088
20.5399995520711 6.52115790653651
20.5599995516241 6.54390813103138
20.579999551177 6.60661289121217
20.59999955073 6.64887200401853
20.619999550283 6.73419378879326
20.6399995498359 6.81599199948878
20.6599995493889 6.97654372167948
20.6799995489419 7.12197699133992
20.6999995484948 7.20305291802714
20.7199995480478 7.2817268902954
20.7399995476007 7.36419071321311
20.7599995471537 7.50904139993972
20.7799995467067 7.67552338345359
20.7999995462596 7.89765283459965
20.8199995458126 8.07000012167398
20.8399995453656 8.22980818607909
20.8599995449185 8.39116657928552
20.8799995444715 8.51740975522477
20.8999995440245 8.64152498569065
20.9199995435774 8.76791688949237
20.9399995431304 8.93530288426012
20.9599995426834 8.99063773243312
20.9799995422363 9.01362160350249
20.9999995417893 9.00303379527089
21.0199995413423 8.97898805133988
21.0399995408952 8.90708545480905
21.0599995404482 8.82851894493558
21.0799995400012 8.729845143191
21.0999995395541 8.57829687797452
21.1199995391071 8.40423089287111
21.13999953866 8.19794097947422
21.159999538213 7.99127522842744
21.179999537766 7.84268457504737
21.1999995373189 7.71400168387603
21.2199995368719 7.63634811997699
21.2399995364249 7.50888856565103
21.2599995359778 7.41947995291548
21.2799995355308 7.33050784583155
21.2999995350838 7.24759000811751
21.3199995346367 7.12777693552303
21.3399995341897 7.03199172885314
21.3599995337427 6.94271489349835
21.3799995332956 6.87951630712569
21.3999995328486 6.91252781404692
21.4199995324016 6.94215127708921
21.4399995319545 6.89938052071409
21.4599995315075 6.85005199206482
21.4799995310605 6.84047250811826
21.4999995306134 6.88830322434308
21.5199995301664 6.90222784727744
21.5399995297194 6.89128857079417
21.5599995292723 6.86752796784715
21.5799995288253 6.890123139602
21.5999995283782 6.88865536652373
21.6199995279312 6.87839083076707
21.6399995274842 6.84639227116346
21.6599995270371 6.83718422135649
21.6799995265901 6.79573958276361
21.6999995261431 6.75125831956657
21.719999525696 6.72416325526179
21.739999525249 6.78046787085627
21.759999524802 6.80205021891669
21.7799995243549 6.80218551567612
21.7999995239079 6.82636534667853
21.8199995234609 6.86273245933057
21.8399995230138 6.82473668675214
21.8599995225668 6.78802920930558
21.8799995221198 6.79717839330112
21.8999995216727 6.84102470157279
21.9199995212257 6.86525365782663
21.9399995207787 6.8654807139235
21.9599995203316 6.81194797499596
21.9799995198846 6.80540278262852
21.9999995194376 6.84218941154399
22.0199995189905 6.95848613494581
22.0399995185435 6.91042089072134
22.0599995180964 6.83259099330508
22.0799995176494 6.74128805037977
22.0999995172024 6.83109871854346
22.1199995167553 6.91339660247709
22.1399995163083 7.00536690385963
22.1599995158613 7.05266977064375
22.1799995154142 7.06854633965911
22.1999995149672 7.01491606810709
22.2199995145202 6.95616849963777
22.2399995140731 6.93073210615232
22.2599995136261 6.8977493692927
22.2799995131791 6.95174752009178
22.299999512732 7.00202719377997
22.319999512285 7.04524688316226
22.339999511838 7.02953418317207
22.3599995113909 7.03949331715351
22.3799995109439 7.01440238673606
22.3999995104969 7.05010682349152
22.4199995100498 7.12206338937665
22.4399995096028 7.18247893867747
22.4599995091558 7.15084547662382
22.4799995087087 7.1876193938299
22.4999995082617 7.22382414168334
22.5199995078146 7.2357992815073
22.5399995073676 7.17714107235531
22.5599995069206 7.17769245774388
22.5799995064735 7.20752284225443
22.5999995060265 7.21529572436098
22.6199995055795 7.26866141200816
22.6399995051324 7.26834722090641
22.6599995046854 7.23528902220216
22.6799995042384 7.18253695383526
22.6999995037913 7.1832460983385
22.7199995033443 7.14873063284618
22.7399995028973 7.17660524905857
22.7599995024502 7.1941343504747
22.7799995020032 7.21941234625775
22.7999995015562 7.18122563918937
22.8199995011091 7.16033731354047
22.8399995006621 7.14384246196307
22.8599995002151 7.16159078274522
22.879999499768 7.24045962206614
22.899999499321 7.30389997379792
22.9199994988739 7.33801993877612
22.9399994984269 7.35712424193247
22.9599994979799 7.26651893985713
22.9799994975328 7.14053733283521
22.9999994970858 7.07194873690297
23.0199994966388 7.08470171396912
23.0399994961917 7.14379474508273
23.0599994957447 7.13572136600728
23.0799994952977 7.18561430218633
23.0999994948506 7.22519223695237
23.1199994944036 7.27677150496337
23.1399994939566 7.27533260696684
23.1599994935095 7.25244568615721
23.1799994930625 7.28040026813123
23.1999994926155 7.3446193013094
23.2199994921684 7.43045577281298
23.2399994917214 7.42806313748127
23.2599994912744 7.33159993086468
23.2799994908273 7.30101691068657
23.2999994903803 7.30393410210376
23.3199994899333 7.35717598625082
23.3399994894862 7.42139686554138
23.3599994890392 7.4842870162536
23.3799994885921 7.46351906938517
23.3999994881451 7.41159216907538
23.4199994876981 7.41431401021078
23.439999487251 7.44079800875077
23.459999486804 7.46894388665428
23.479999486357 7.45183265209662
23.4999994859099 7.47549654911335
23.5199994854629 7.49387563505108
23.5399994850159 7.51859638806781
23.5599994845688 7.46519547361488
23.5799994841218 7.43052789603916
23.5999994836748 7.45047325031882
23.6199994832277 7.46944563337193
23.6399994827807 7.46999123262048
23.6599994823337 7.43459545168453
23.6799994818866 7.44425226549372
23.6999994814396 7.40385945458012
23.7199994809926 7.43508202560324
23.7399994805455 7.41989780553761
23.7599994800985 7.42174922115179
23.7799994796515 7.40901604205961
23.7999994792044 7.44057178195106
23.8199994787574 7.4685408869608
23.8399994783103 7.45989215283982
23.8599994778633 7.43546860252754
23.8799994774163 7.41214504606038
23.8999994769692 7.33218334354826
23.9199994765222 7.34491096384347
23.9399994760752 7.44662455681182
23.9599994756281 7.58989972803765
23.9799994751811 7.5514827544511
23.9999994747341 7.49693516143521
24.019999474287 7.50864377857226
24.03999947384 7.5390119485883
24.059999473393 7.55142980054565
24.0799994729459 7.56051937036599
24.0999994724989 7.54831709231134
24.1199994720519 7.44995629991343
24.1399994716048 7.38166266468378
24.1599994711578 7.39604676423599
24.1799994707108 7.46037470836975
24.1999994702637 7.50280702149528
24.2199994698167 7.52885408329059
24.2399994693697 7.5239722617234
24.2599994689226 7.49188512790385
24.2799994684756 7.42285014855895
24.2999994680285 7.43001763562776
24.3199994675815 7.456203056479
24.3399994671345 7.53286976284303
24.3599994666874 7.53910270802637
24.3799994662404 7.56092530826884
24.3999994657934 7.49996464575167
24.4199994653463 7.53839181604661
24.4399994648993 7.5463913984679
24.4599994644523 7.55017383183196
24.4799994640052 7.47445939082776
24.4999994635582 7.46854382406492
24.5199994631112 7.51861058809479
24.5399994626641 7.56876994886627
24.5599994622171 7.57272995481083
24.5799994617701 7.48128522832295
24.599999461323 7.41630305683188
24.619999460876 7.43532367301076
24.639999460429 7.54845380096567
24.6599994599819 7.65730918849921
24.6799994595349 7.63780721011001
24.6999994590878 7.6075936145805
24.7199994586408 7.52722352551018
24.7399994581938 7.43996221687063
24.7599994577467 7.39103317956763
24.7799994572997 7.43766029091955
24.7999994568527 7.50505013800001
24.8199994564056 7.50585254970794
24.8399994559586 7.57329644134778
24.8599994555116 7.68562335211287
24.8799994550645 7.68294218763623
24.8999994546175 7.59079774343683
24.9199994541705 7.54008352639584
24.9399994537234 7.60733188568723
24.9599994532764 7.59995977373305
24.9799994528294 7.64630756117006
24.9999994523823 7.65138244920615
25.0199994519353 7.71521467332879
25.0399994514883 7.70875978459487
25.0599994510412 7.663835239075
25.0799994505942 7.591839795442
25.0999994501472 7.57623087629477
25.1199994497001 7.66185001538914
25.1399994492531 7.72497618380237
25.159999448806 7.81112524992236
25.179999448359 7.74780908687258
25.199999447912 7.78110631212513
25.2199994474649 7.89825409885413
25.2399994470179 7.95325351316996
25.2599994465709 7.86545267513058
25.2799994461238 7.78722665882783
25.2999994456768 7.87778036783032
25.3199994452298 8.05343592504337
25.3399994447827 8.15413115541284
25.3599994443357 8.13701546324862
25.3799994438887 8.10209325462376
25.3999994434416 8.11979449134872
25.4199994429946 8.21143036349687
25.4399994425476 8.23730377957519
25.4599994421005 8.15066177201218
25.4799994416535 8.13889604559332
25.4999994412065 8.19907502608369
25.5199994407594 8.30150513194717
25.5399994403124 8.26226700776677
25.5599994398654 8.28019419752958
25.5799994394183 8.24202369987001
25.5999994389713 8.27405446294912
25.6199994385242 8.22297042946556
25.6399994380772 8.15982750057207
25.6599994376302 8.02000488938881
25.6799994371831 7.97624193726311
25.6999994367361 8.041001775082
25.7199994362891 8.0317398093871
25.739999435842 7.94806009126124
25.759999435395 7.80971054196438
25.779999434948 7.7412458386666
25.7999994345009 7.71235396290411
25.8199994340539 7.74164232078717
25.8399994336069 7.81409195269885
25.8599994331598 7.80873003566492
25.8799994327128 7.71644617951395
25.8999994322658 7.64513652201705
25.9199994318187 7.65066380098177
25.9399994313717 7.60359471196448
25.9599994309247 7.57124343573427
25.9799994304776 7.64586569528263
25.9999994300306 7.71520847913174
26.0199994295836 7.70455381651779
26.0399994291365 7.66958624762908
26.0599994286895 7.69005198736771
26.0799994282424 7.70767333255251
26.0999994277954 7.66568310651339
26.1199994273484 7.63976009594424
26.1399994269013 7.64106431699679
26.1599994264543 7.6878254520271
26.1799994260073 7.70667955028522
26.1999994255602 7.70376753349499
26.2199994251132 7.67620809596315
26.2399994246662 7.62330917211871
26.2599994242191 7.57764359223584
26.2799994237721 7.57100734592212
26.2999994233251 7.59598404474193
26.319999422878 7.59683116573389
26.339999422431 7.61190505060247
26.359999421984 7.64814913405768
26.3799994215369 7.66570465422505
26.3999994210899 7.62298727991897
26.4199994206429 7.51258334491847
26.4399994201958 7.53050440047672
26.4599994197488 7.60965711858166
26.4799994193017 7.62284697585965
26.4999994188547 7.54376707977007
26.5199994184077 7.46893845830201
26.5399994179606 7.52131635616717
26.5599994175136 7.59867072264516
26.5799994170666 7.6350653849865
26.5999994166195 7.61721782777564
26.6199994161725 7.55666964616534
26.6399994157255 7.52126889795186
26.6599994152784 7.61860573433006
26.6799994148314 7.66876748603343
26.6999994143844 7.72874461334973
26.7199994139373 7.68095289333219
26.7399994134903 7.64256328442077
26.7599994130433 7.56426145918623
26.7799994125962 7.6056367490107
26.7999994121492 7.62978618261793
26.8199994117022 7.71507095969397
26.8399994112551 7.7462243254193
26.8599994108081 7.78941891233013
26.8799994103611 7.67658099425817
26.899999409914 7.61580815749474
26.919999409467 7.58025655531463
26.9399994090199 7.65767080853317
26.9599994085729 7.7029630681513
26.9799994081259 7.70804362031503
26.9999994076788 7.70013036931074
27.0199994072318 7.69263830094257
27.0399994067848 7.62154928829201
27.0599994063377 7.56272452435323
27.0799994058907 7.5030600700956
27.0999994054437 7.51104002502917
27.1199994049966 7.5686541693357
27.1399994045496 7.55070098452882
27.1599994041026 7.56468987070665
27.1799994036555 7.53677018536434
27.1999994032085 7.60188227200778
27.2199994027615 7.61682671736518
27.2399994023144 7.62971240184773
27.2599994018674 7.6492908763194
27.2799994014204 7.68438859990008
27.2999994009733 7.69472973264524
27.3199994005263 7.7039575595783
27.3399994000793 7.70203880222633
27.3599993996322 7.72246967900895
27.3799993991852 7.70918127351901
27.3999993987381 7.7468003043247
27.4199993982911 7.73017483628426
27.4399993978441 7.59277157998342
27.459999397397 7.55600542647562
27.47999939695 7.58098962529181
27.499999396503 7.71687905115479
27.5199993960559 7.65292103147899
27.5399993956089 7.60465477041561
27.5599993951619 7.58425776318265
27.5799993947148 7.60819413744198
27.5999993942678 7.60761895984499
27.6199993938208 7.6165502482932
27.6399993933737 7.64435950277876
27.6599993929267 7.7127653168056
27.6799993924797 7.75990304334361
27.6999993920326 7.68187855200043
27.7199993915856 7.55273078166714
27.7399993911386 7.46030520727879
27.7599993906915 7.50407401771131
27.7799993902445 7.5906300031142
27.7999993897974 7.60898931184899
27.8199993893504 7.58641544346059
27.8399993889034 7.53412750477524
27.8599993884563 7.5153413528867
27.8799993880093 7.52596047282237
27.8999993875623 7.50842281076572
27.9199993871152 7.55001257237982
27.9399993866682 7.63435488227185
27.9599993862212 7.78982631268119
27.9799993857741 7.84555400307184
27.9999993853271 7.72797333177314
28.0199993848801 7.64130712176004
28.039999384433 7.64276681661178
28.059999383986 7.72183670465841
28.079999383539 7.7437316205755
28.0999993830919 7.73103116773111
28.1199993826449 7.72343803261883
28.1399993821979 7.70812969192724
28.1599993817508 7.60731472018494
28.1799993813038 7.55561026697626
28.1999993808568 7.59376548097963
28.2199993804097 7.68565984832301
28.2399993799627 7.749946329192
28.2599993795156 7.78660293022931
28.2799993790686 7.76480502157483
28.2999993786216 7.80696462252938
28.3199993781745 7.83293388104496
28.3399993777275 7.84737560016707
28.3599993772805 7.7872315334096
28.3799993768334 7.72945029163863
28.3999993763864 7.73129594073294
28.4199993759394 7.7522423050422
28.4399993754923 7.83643285046014
28.4599993750453 7.80811837775436
28.4799993745983 7.7755580105613
28.4999993741512 7.7704723463043
28.5199993737042 7.81649775189628
28.5399993732572 7.95015163973807
28.5599993728101 7.94316259152754
28.5799993723631 7.89210384816586
28.5999993719161 7.84372508525007
28.619999371469 7.92982476527046
28.639999371022 8.00311701947416
28.659999370575 8.02122226185067
28.6799993701279 8.00051446873013
28.6999993696809 7.99088842844498
28.7199993692338 8.01640664120869
28.7399993687868 8.07396190825563
28.7599993683398 8.11487250161208
28.7799993678927 8.08381208147166
28.7999993674457 8.19894132661221
28.8199993669987 8.20366361372891
28.8399993665516 8.254187287185
28.8599993661046 8.27282583378975
28.8799993656576 8.36243694245731
28.8999993652105 8.33107205333277
28.9199993647635 8.33511920034553
28.9399993643165 8.31383895132274
28.9599993638694 8.36224581532959
28.9799993634224 8.40889855397869
28.9999993629754 8.50889569780386
29.0199993625283 8.60414263328268
29.0399993620813 8.74416530311438
29.0599993616343 8.81293409822087
29.0799993611872 8.87241636692598
29.0999993607402 8.98202487572301
29.1199993602932 9.09879476405579
29.1399993598461 9.22290161641885
29.1599993593991 9.33935955452491
29.179999358952 9.48987451501383
29.199999358505 9.65171229015039
29.219999358058 9.85263952253809
29.2399993576109 10.0880228149815
29.2599993571639 10.2449090127321
29.2799993567169 10.493005140291
29.2999993562698 10.7460090500239
29.3199993558228 11.049723661395
29.3399993553758 11.3558972481962
29.3599993549287 11.5211168487091
29.3799993544817 11.6669978465046
29.3999993540347 11.789800600987
29.4199993535876 12.0562594399
29.4399993531406 12.2980609813495
29.4599993526936 12.4494787883468
29.4799993522465 12.4716964777677
29.4999993517995 12.420583487584
29.5199993513525 12.4005870973767
29.5399993509054 12.4403435045729
29.5599993504584 12.4670363254165
29.5799993500113 12.3762540053963
29.5999993495643 12.1345007260011
29.6199993491173 11.8391339979085
29.6399993486702 11.5108390458969
29.6599993482232 11.2076041733814
29.6799993477762 10.9742541565797
29.6999993473291 10.744209305683
29.7199993468821 10.3724520099656
29.7399993464351 10.0186701714036
29.759999345988 9.77363328988976
29.779999345541 9.56883968368094
29.799999345094 9.32282432210267
29.8199993446469 9.09869438423181
29.8399993441999 8.86353198977369
29.8599993437529 8.71827871451586
29.8799993433058 8.5038845387247
29.8999993428588 8.33174048103781
29.9199993424118 8.29560865007173
29.9399993419647 8.24302682888633
29.9599993415177 8.11234420129856
29.9799993410707 7.99889889651401
29.9999993406236 7.94738086671088
30.0199993401766 7.89568091426961
30.0399993397295 7.82490787134883
30.0599993392825 7.81049668469363
30.0799993388355 7.79951302433243
30.0999993383884 7.76484257696181
30.1199993379414 7.72339958142059
30.1399993374944 7.66936800688595
30.1599993370473 7.69971703974084
30.1799993366003 7.65247003458257
30.1999993361533 7.61735792959011
30.2199993357062 7.61324896672197
30.2399993352592 7.62968484905419
30.2599993348122 7.58256320851176
30.2799993343651 7.62521069879344
30.2999993339181 7.60026949058383
30.3199993334711 7.53748306371968
30.339999333024 7.43153938886117
30.359999332577 7.4977084613725
30.37999933213 7.53171040805976
30.3999993316829 7.46236439649867
30.4199993312359 7.41631274119165
30.4399993307889 7.43728143860915
30.4599993303418 7.49763423703528
30.4799993298948 7.55022441145336
30.4999993294477 7.61025209686962
30.5199993290007 7.63451751830912
30.5399993285537 7.63375785650395
30.5599993281066 7.60626221993538
30.5799993276596 7.51147946531572
30.5999993272126 7.42853714675022
30.6199993267655 7.34900283618521
30.6399993263185 7.27463093632877
30.6599993258715 7.24847379075441
30.6799993254244 7.28796721540154
30.6999993249774 7.35963341015044
30.7199993245304 7.38710810772223
30.7399993240833 7.34594577687704
30.7599993236363 7.4080736583667
30.7799993231893 7.43739284762399
30.7999993227422 7.40359613126413
30.8199993222952 7.20900986194775
30.8399993218482 7.17470202784247
30.8599993214011 7.1391126373239
30.8799993209541 7.23247373394518
30.8999993205071 7.26416515901399
30.91999932006 7.36696805750866
30.939999319613 7.32440452327876
30.9599993191659 7.25575773716743
30.9799993187189 7.19414220224616
30.9999993182719 7.19239319162625
31.0199993178248 7.21759002731648
31.0399993173778 7.27040387487671
31.0599993169308 7.31345125729268
31.0799993164837 7.37581857661
31.0999993160367 7.33285938755773
31.1199993155897 7.25750855790685
31.1399993151426 7.21362256543204
31.1599993146956 7.23218986953348
31.1799993142486 7.26087583984268
31.1999993138015 7.22958360811399
31.2199993133545 7.22554274093725
31.2399993129075 7.23645142080848
31.2599993124604 7.17053469668819
31.2799993120134 7.06657661136196
31.2999993115664 7.06188046765436
31.3199993111193 7.10993451299087
31.3399993106723 7.17367090404782
31.3599993102252 7.13124878827246
31.3799993097782 7.12127474741958
31.3999993093312 7.04533296170367
31.4199993088841 7.05112407553173
31.4399993084371 7.06630566613476
31.4599993079901 7.12073556302481
31.479999307543 7.13232957839178
31.499999307096 7.21828782292673
31.519999306649 7.24667721327767
31.5399993062019 7.24271186150616
31.5599993057549 7.20169374838331
31.5799993053079 7.21593218547014
31.5999993048608 7.20057670033449
31.6199993044138 7.19142206797992
31.6399993039668 7.18417173139836
31.6599993035197 7.19152493712721
31.6799993030727 7.15734292238918
31.6999993026257 7.10819365338959
31.7199993021786 7.09357242597956
31.7399993017316 7.17055125468635
31.7599993012846 7.19318967218497
31.7799993008375 7.17124664744835
31.7999993003905 7.09849819161522
31.8199992999434 7.0592137105967
31.8399992994964 7.04476030480394
31.8599992990494 7.02391407811425
31.8799992986023 7.02783036878782
31.8999992981553 7.03649625490959
31.9199992977083 7.08458422439553
31.9399992972612 7.13174651618197
31.9599992968142 7.12779219428473
31.9799992963672 7.1420953864039
31.9999992959201 7.10221993545265
32.0199992954731 7.01319258167004
32.0399992950261 7.03478079970285
32.059999294579 7.0959261212071
32.079999294132 7.14402108560154
32.099999293685 7.09614665284074
32.1199992932379 7.09164076480542
32.1399992927909 7.15213666529271
32.1599992923439 7.21312466409223
32.1799992918968 7.22065649749894
32.1999992914498 7.10158519634177
32.2199992910028 7.03424516055132
32.2399992905557 7.08256851006791
32.2599992901087 7.13545543239308
32.2799992896616 7.07731309743653
32.2999992892146 7.04189794214204
32.3199992887676 7.08398474010106
32.3399992883205 7.14611298672615
32.3599992878735 7.12316404699602
32.3799992874265 7.15831582814655
32.3999992869794 7.13246683841264
32.4199992865324 7.14756019602388
32.4399992860854 7.10565775874332
32.4599992856383 7.16447851351383
32.4799992851913 7.18755635367089
32.4999992847443 7.27866923947533
32.5199992842972 7.31104849839845
32.5399992838502 7.34627659640386
32.5599992834032 7.32884674466745
32.5799992829561 7.36029404635839
32.5999992825091 7.48412885488028
32.6199992820621 7.54037713632303
32.639999281615 7.53608536479585
32.659999281168 7.45924994929931
32.6799992807209 7.46173120048354
32.6999992802739 7.53778765620824
32.7199992798269 7.63662819065665
32.7399992793798 7.7526328481553
32.7599992789328 7.78833839295833
32.7799992784858 7.90377456051458
32.7999992780387 8.1112483031442
32.8199992775917 8.24735392590945
32.8399992771447 8.37586020902096
32.8599992766976 8.49667840371851
32.8799992762506 8.55333587558204
32.8999992758036 8.58639627049635
32.9199992753565 8.64920198679721
32.9399992749095 8.82596164859834
32.9599992744625 8.97159066430703
32.9799992740154 9.04945579526025
32.9999992735684 9.02017078438682
33.0199992731214 9.00187151081455
33.0399992726743 8.93445341925167
33.0599992722273 8.95824573656077
33.0799992717803 8.97094910530801
33.0999992713332 8.95811753101759
33.1199992708862 8.91286103090019
33.1399992704391 8.82331778943251
33.1599992699921 8.65729689479029
33.1799992695451 8.50073048409657
33.199999269098 8.32788632939175
33.219999268651 8.20139874164352
33.239999268204 8.02622351242557
33.2599992677569 7.84100583365801
33.2799992673099 7.64147682177546
33.2999992668629 7.59704852411557
33.3199992664158 7.61065064277477
33.3399992659688 7.53859609093232
33.3599992655218 7.37267732157487
33.3799992650747 7.20599696943316
33.3999992646277 7.14888010999187
33.4199992641807 7.12254671531511
33.4399992637336 7.0658318133357
33.4599992632866 6.97179180519971
33.4799992628396 6.88604648934659
33.4999992623925 6.8825546079201
33.5199992619455 6.9563412410353
33.5399992614985 6.95952044466269
33.5599992610514 6.8724730348231
33.5799992606044 6.77443754956602
33.5999992601573 6.7560765920427
33.6199992597103 6.79673371811909
33.6399992592633 6.76201846398348
33.6599992588162 6.73903895898339
33.6799992583692 6.67588375176297
33.6999992579222 6.64649792327175
33.7199992574751 6.58270655947547
33.7399992570281 6.61246515513754
33.7599992565811 6.60234402286193
33.779999256134 6.65876217214589
33.799999255687 6.63537491172948
33.81999925524 6.60051123778225
33.8399992547929 6.68713472906101
33.8599992543459 6.71117033707511
33.8799992538989 6.66577752602801
33.8999992534518 6.57349553926637
33.9199992530048 6.52942795465631
33.9399992525578 6.50698327911946
33.9599992521107 6.47376037472452
33.9799992516637 6.50101843955686
33.9999992512167 6.47273128002057
34.0199992507696 6.39265235859756
34.0399992503226 6.37890048395838
34.0599992498755 6.36871766437284
34.0799992494285 6.38405822461031
34.0999992489815 6.47795148577255
34.1199992485344 6.47821289329948
34.1399992480874 6.46192695414603
34.1599992476404 6.44444025702765
34.1799992471933 6.47227454316229
34.1999992467463 6.4262063232129
34.2199992462993 6.32008096876814
34.2399992458522 6.28089820875517
34.2599992454052 6.26112187720426
34.2799992449582 6.23311233036808
34.2999992445111 6.2841984697809
34.3199992440641 6.35162507614642
34.3399992436171 6.42579564346266
34.35999924317 6.42367433637188
34.379999242723 6.34549176411681
34.399999242276 6.23071431885978
34.4199992418289 6.15558967003461
34.4399992413819 6.17951280602244
34.4599992409348 6.19039183750433
34.4799992404878 6.24212316693755
34.4999992400408 6.28338427046284
34.5199992395937 6.38715384093323
34.5399992391467 6.31863275532486
34.5599992386997 6.21099293328165
34.5799992382526 6.03983723284173
34.5999992378056 6.02480758219814
34.6199992373586 6.13637537159355
34.6399992369115 6.26315678013767
34.6599992364645 6.30884871878338
34.6799992360175 6.29018799590661
34.6999992355704 6.32527859661261
34.7199992351234 6.38083188955602
34.7399992346764 6.33152654646059
34.7599992342293 6.22899596679049
34.7799992337823 6.11863549884974
34.7999992333353 6.15375844638965
34.8199992328882 6.14633944516848
34.8399992324412 6.13522164598209
34.8599992319942 6.06954664314744
34.8799992315471 6.0580591868898
34.8999992311001 6.10391811226724
34.919999230653 6.12096871555499
34.939999230206 6.09927656897274
34.959999229759 6.12264558778784
34.9799992293119 6.19965701265667
34.9999992288649 6.24981319082851
35.0199992284179 6.21893314627152
35.0399992279708 6.18707769469896
35.0599992275238 6.16124367842371
35.0799992270768 6.1378345295501
35.0999992266297 6.11428803743908
35.1199992261827 6.10894929326597
35.1399992257357 6.13716937984185
35.1599992252886 6.16858724748889
35.1799992248416 6.17614629625535
35.1999992243946 6.14856293079318
35.2199992239475 6.09329457001166
35.2399992235005 6.04810973786261
35.2599992230535 6.05810932959635
35.2799992226064 6.08832173558561
35.2999992221594 6.11351168853485
35.3199992217124 6.12598470409028
35.3399992212653 6.13240712800967
35.3599992208183 6.2339853555191
35.3799992203712 6.27791383445967
35.3999992199242 6.29598693381246
35.4199992194772 6.19362069417227
35.4399992190301 6.11514032812954
35.4599992185831 6.05490372215031
35.4799992181361 6.01098700405067
35.499999217689 6.00388052721248
35.519999217242 6.0777423906068
35.539999216795 6.12256605162205
35.5599992163479 6.13263662851802
35.5799992159009 6.04377331569898
35.5999992154539 6.05109546031055
35.6199992150068 6.06380002852973
35.6399992145598 6.0978632781576
35.6599992141128 6.08100712720752
35.6799992136657 6.02524851038609
35.6999992132187 5.99702869222929
35.7199992127717 5.9747957160204
35.7399992123246 6.00997774793901
35.7599992118776 6.01990482821888
35.7799992114306 6.06511140370226
35.7999992109835 6.12799765997799
35.8199992105365 6.22069265230132
35.8399992100894 6.30885063265539
35.8599992096424 6.40552132408945
35.8799992091954 6.48358752962697
35.8999992087483 6.51844844661148
35.9199992083013 6.54868237560319
35.9399992078543 6.5172995413801
35.9599992074072 6.53723504120498
35.9799992069602 6.54786550461828
35.9999992065132 6.59024615569516
36.0199992060661 6.57545463152207
36.0399992056191 6.5311000402325
36.0599992051721 6.56511311919231
36.079999204725 6.60402050102245
36.099999204278 6.67001673951132
36.119999203831 6.66691638890034
36.1399992033839 6.70450567226151
36.1599992029369 6.73744852007906
36.1799992024899 6.65772736219025
36.1999992020428 6.60045407576222
36.2199992015958 6.63182544795879
36.2399992011487 6.72669555724413
36.2599992007017 6.72254947305039
36.2799992002547 6.6337024890924
36.2999991998076 6.49828514289021
36.3199991993606 6.39681470872284
36.3399991989136 6.33646963884983
36.3599991984665 6.28349519525658
36.3799991980195 6.20515247324346
36.3999991975725 6.17776282956046
36.4199991971254 6.1736907857308
36.4399991966784 6.11093705923513
36.4599991962314 6.02618266338854
36.4799991957843 5.95773481467956
36.4999991953373 5.95818131385627
36.5199991948903 5.93809725520465
36.5399991944432 5.92198160189422
36.5599991939962 5.91973642603614
36.5799991935492 5.86869826556333
36.5999991931021 5.81391816976748
36.6199991926551 5.75853553455062
36.6399991922081 5.76681515687338
36.659999191761 5.82081029159302
36.679999191314 5.82596698514125
36.6999991908669 5.76704691314048
36.7199991904199 5.66212972692913
36.7399991899729 5.64216826902405
36.7599991895258 5.71017237069813
36.7799991890788 5.78133805075391
36.7999991886318 5.73244603987682
36.8199991881847 5.66056024728623
36.8399991877377 5.58988335164448
36.8599991872907 5.58543903243062
36.8799991868436 5.51195758222775
36.8999991863966 5.55909784353205
36.9199991859496 5.62293279285793
36.9399991855025 5.69826876583068
36.9599991850555 5.69266591807415
36.9799991846085 5.65234922512376
36.9999991841614 5.59233917105326
37.0199991837144 5.51906849362084
37.0399991832674 5.51304445447577
37.0599991828203 5.55191449803206
37.0799991823733 5.60132130350076
37.0999991819263 5.6493470179121
37.1199991814792 5.61061585882554
37.1399991810322 5.58832499692682
37.1599991805851 5.59176674982974
37.1799991801381 5.64838401857404
37.1999991796911 5.7271456762334
37.219999179244 5.70577737576274
37.239999178797 5.61131704759295
37.25999917835 5.51271154781491
37.2799991779029 5.49158409059529
37.2999991774559 5.62852601947518
37.3199991770089 5.68125439883012
37.3399991765618 5.68999589119753
37.3599991761148 5.68079317801758
37.3799991756678 5.66228874325788
37.3999991752207 5.61454733562473
37.4199991747737 5.52121578597942
37.4399991743267 5.40330614152732
37.4599991738796 5.37994144446385
37.4799991734326 5.41608780995589
37.4999991729856 5.46225329907803
37.5199991725385 5.41725217861418
37.5399991720915 5.31701085167473
37.5599991716444 5.29027833485641
37.5799991711974 5.29731360305253
37.5999991707504 5.387657359052
37.6199991703033 5.49457797631484
37.6399991698563 5.55857582556024
37.6599991694093 5.59586544703345
37.6799991689622 5.51480010180875
37.6999991685152 5.53479872319487
37.7199991680682 5.55284934029564
37.7399991676211 5.52547678915932
37.7599991671741 5.42717170798285
37.7799991667271 5.36009487266901
37.79999916628 5.39025792592184
37.819999165833 5.43410776335141
37.839999165386 5.42801426395704
37.8599991649389 5.40398538833391
37.8799991644919 5.38136489650097
37.8999991640449 5.40341604150665
37.9199991635978 5.40399909648403
37.9399991631508 5.4051766338795
37.9599991627038 5.36884818889003
37.9799991622567 5.41575949040093
37.9999991618097 5.43844980743225
38.0199991613626 5.48097249362251
38.0399991609156 5.41781424498771
38.0599991604686 5.36795733768509
38.0799991600215 5.30932625267968
38.0999991595745 5.2710458352868
38.1199991591275 5.2900297658887
38.1399991586804 5.31027879151829
38.1599991582334 5.37844523865111
38.1799991577864 5.32719027599548
38.1999991573393 5.30041726558332
38.2199991568923 5.23873050281277
38.2399991564453 5.25321887836837
38.2599991559982 5.29779617562726
38.2799991555512 5.32055075931325
38.2999991551042 5.37273324432959
38.3199991546571 5.3386537532014
38.3399991542101 5.34899415136171
38.3599991537631 5.26625101956212
38.379999153316 5.28138238440077
38.399999152869 5.28294184098456
38.419999152422 5.38056731189315
38.4399991519749 5.2989938348331
38.4599991515279 5.24611448082989
38.4799991510808 5.17884718418075
38.4999991506338 5.29566649249767
38.5199991501868 5.33462265542011
38.5399991497397 5.307765619631
38.5599991492927 5.25994007587967
38.5799991488457 5.26694660949572
38.5999991483986 5.32262589263316
38.6199991479516 5.32417521734014
38.6399991475046 5.31007520159509
38.6599991470575 5.30849950577149
38.6799991466105 5.2770004876262
38.6999991461635 5.16018829794174
38.7199991457164 5.12009292588809
38.7399991452694 5.16032027625054
38.7599991448224 5.27545516652328
38.7799991443753 5.25003321824713
38.7999991439283 5.15229793181579
38.8199991434813 5.1118625623226
38.8399991430342 5.1409833690938
38.8599991425872 5.17241401194327
38.8799991421402 5.17812331121872
38.8999991416931 5.19036483439576
38.9199991412461 5.21391186944434
38.939999140799 5.21892664164876
38.959999140352 5.20184532006506
38.979999139905 5.17964664243957
38.9999991394579 5.20095826414842
39.0199991390109 5.25383603666489
39.0399991385639 5.21216646831187
39.0599991381168 5.22694431537726
39.0799991376698 5.28201976409723
39.0999991372228 5.3491280777382
39.1199991367757 5.32498549524126
39.1399991363287 5.26630797219551
39.1599991358817 5.23416636304006
39.1799991354346 5.20784458728347
39.1999991349876 5.14536665330043
39.2199991345406 5.11527473510796
39.2399991340935 5.10634033478606
39.2599991336465 5.11287157458977
39.2799991331995 5.17893225156304
39.2999991327524 5.23934332069041
39.3199991323054 5.1832931217647
39.3399991318583 5.06914950234534
39.3599991314113 5.03875405710461
39.3799991309643 5.11255558528493
39.3999991305172 5.18994961047071
39.4199991300702 5.13200726924914
39.4399991296232 5.02696968784855
39.4599991291761 5.06210550678614
39.4799991287291 5.11279947772467
39.4999991282821 5.14280137644065
39.519999127835 5.12983657443521
39.539999127388 5.12731638362825
39.559999126941 5.19660862205177
39.5799991264939 5.18703810223996
39.5999991260469 5.14450296236439
39.6199991255999 5.07138416826751
39.6399991251528 5.04684993386097
39.6599991247058 5.1075792261762
39.6799991242588 5.21639644401894
39.6999991238117 5.30410927804757
39.7199991233647 5.28476612302669
39.7399991229177 5.29663028525336
39.7599991224706 5.21969720868541
39.7799991220236 5.23292573721981
39.7999991215765 5.21994010504456
39.8199991211295 5.27829764772689
39.8399991206825 5.30170979958716
39.8599991202354 5.31320023762799
39.8799991197884 5.37902662000729
39.8999991193414 5.37405803634326
39.9199991188943 5.34251422208399
39.9399991184473 5.30597009179682
39.9599991180003 5.30906820539235
39.9799991175532 5.35840184713708
39.9999991171062 5.34567393991228
40.0199991166592 5.34341714363679
40.0399991162121 5.3318594799576
40.0599991157651 5.29781310321427
40.0799991153181 5.26801542781778
40.099999114871 5.22931803694981
40.119999114424 5.22766231889439
40.139999113977 5.26185123845485
40.1599991135299 5.26865552713457
40.1799991130829 5.27004978884088
40.1999991126359 5.25568293893674
40.2199991121888 5.22809152726893
40.2399991117418 5.18739215319258
40.2599991112947 5.18324924844133
40.2799991108477 5.22933098130374
40.2999991104007 5.25987117702657
40.3199991099536 5.21066664021908
40.3399991095066 5.10850353431459
40.3599991090596 5.08035473095738
40.3799991086125 5.08998189240588
40.3999991081655 5.09188158273509
40.4199991077185 5.09061089794215
40.4399991072714 5.16660982232705
40.4599991068244 5.21753606120913
40.4799991063774 5.22397448616691
40.4999991059303 5.26821720315588
40.5199991054833 5.34853862620727
40.5399991050363 5.4214183604068
40.5599991045892 5.32827899368283
40.5799991041422 5.30241989043231
40.5999991036952 5.31615629423971
40.6199991032481 5.30585364648923
40.6399991028011 5.25576425626869
40.6599991023541 5.2211617957867
40.679999101907 5.23527654582648
40.69999910146 5.24360851544456
40.7199991010129 5.18355612485737
40.7399991005659 5.22053699866508
40.7599991001189 5.21298866947273
40.7799990996718 5.29625974385277
40.7999990992248 5.24364405199658
40.8199990987778 5.18676811277133
40.8399990983307 5.08558864524312
40.8599990978837 5.09635958538123
40.8799990974367 5.13127351964072
40.8999990969896 5.11488395545186
40.9199990965426 5.11447885038321
40.9399990960956 5.16794642960607
40.9599990956485 5.24937757208522
40.9799990952015 5.26243841323842
40.9999990947545 5.17573806596079
41.0199990943074 5.09213672062614
41.0399990938604 5.14126289612442
41.0599990934134 5.22631485494585
41.0799990929663 5.30978807978654
41.0999990925193 5.33094991379394
41.1199990920722 5.25818126427517
41.1399990916252 5.20060556222468
41.1599990911782 5.13816448450203
41.1799990907311 5.24505319028831
41.1999990902841 5.28499465885618
41.2199990898371 5.28759376244223
41.23999908939 5.24397116257181
41.259999088943 5.28548503681481
41.279999088496 5.32841167950257
41.2999990880489 5.38456073866321
41.3199990876019 5.36939442856488
41.3399990871549 5.31440115675286
41.3599990867078 5.29918459955557
41.3799990862608 5.38868219382781
41.3999990858138 5.50458867773811
41.4199990853667 5.54965453873913
41.4399990849197 5.5327045321726
41.4599990844727 5.51943681225614
41.4799990840256 5.42572001697421
41.4999990835786 5.4744537610003
41.5199990831316 5.51753829197027
41.5399990826845 5.61761788743493
41.5599990822375 5.65738490621913
41.5799990817904 5.73414768116728
41.5999990813434 5.76023557099902
41.6199990808964 5.77084802266359
41.6399990804493 5.82234545177311
41.6599990800023 5.90638866169746
41.6799990795553 6.00169633736822
41.6999990791082 6.00556372581666
41.7199990786612 6.00878143337579
41.7399990782142 6.10098798513986
41.7599990777671 6.2216867811052
41.7799990773201 6.28645755088606
41.7999990768731 6.30477800212098
41.819999076426 6.40263094625374
41.839999075979 6.4914480913507
41.859999075532 6.48216261663628
41.8799990750849 6.48030139293072
41.8999990746379 6.55802189422365
41.9199990741909 6.67311425885766
41.9399990737438 6.68484496753144
41.9599990732968 6.62108887005349
41.9799990728498 6.54833985233094
41.9999990724027 6.57557514628482
42.0199990719557 6.54852163821895
42.0399990715086 6.54836584715257
42.0599990710616 6.48371360527748
42.0799990706146 6.54447250653269
42.0999990701675 6.48875309748786
42.1199990697205 6.36805210544912
42.1399990692735 6.23625777595608
42.1599990688264 6.15652638647269
42.1799990683794 6.10631832351428
42.1999990679324 6.02685132207382
42.2199990674853 5.98750642164837
42.2399990670383 5.93549435138744
42.2599990665913 5.87954225601239
42.2799990661442 5.73968116030233
42.2999990656972 5.61524584552139
42.3199990652502 5.57287529116374
42.3399990648031 5.67902470749734
42.3599990643561 5.69375695500002
42.3799990639091 5.62943479079883
42.399999063462 5.46825895562091
42.419999063015 5.39150014323247
42.4399990625679 5.39112623550767
42.4599990621209 5.36376622755305
42.4799990616739 5.27301989524898
42.4999990612268 5.19534831786419
42.5199990607798 5.25028225173183
42.5399990603328 5.40566173660001
42.5599990598857 5.45492561475366
42.5799990594387 5.34141563169321
42.5999990589917 5.18215307640098
42.6199990585446 5.09816290039396
42.6399990580976 5.12023707909858
42.6599990576506 5.19185229158888
42.6799990572035 5.22972349677487
42.6999990567565 5.21252688491488
42.7199990563095 5.18751709342683
42.7399990558624 5.24527537690854
42.7599990554154 5.25750719362344
42.7799990549684 5.16166122527501
42.7999990545213 5.02174159766206
42.8199990540743 4.98940572960952
42.8399990536273 5.01904461935368
42.8599990531802 5.05219592954824
42.8799990527332 5.12644455581178
42.8999990522861 5.10175635124045
42.9199990518391 5.07061925613917
42.9399990513921 5.02468829164591
42.959999050945 5.01297768878861
42.979999050498 5.0523692132038
42.999999050051 4.99930496810164
43.0199990496039 4.98297819742431
43.0399990491569 4.99720117874488
43.0599990487099 5.15867688941932
43.0799990482628 5.21512692863925
43.0999990478158 5.20971061949506
43.1199990473688 5.14847129632185
43.1399990469217 5.12718894501707
43.1599990464747 5.11693293814697
43.1799990460277 5.11924905602279
43.1999990455806 5.13677058115596
43.2199990451336 5.14266158979861
43.2399990446866 5.13813725040944
43.2599990442395 5.150525317237
43.2799990437925 5.07023768930329
43.2999990433455 5.05796049672718
43.3199990428984 5.08507248219973
43.3399990424514 5.08295509324935
43.3599990420043 5.00672032770785
43.3799990415573 4.95270596345851
43.3999990411103 5.02609526872349
43.4199990406632 5.10791376206993
43.4399990402162 5.15989824733079
43.4599990397692 5.11257398697015
43.4799990393221 5.06312951740181
43.4999990388751 5.08949841478632
43.5199990384281 5.11906453878362
43.539999037981 5.17198007624662
43.559999037534 5.10087578343272
43.579999037087 5.09504057830611
43.5999990366399 5.12325539929478
43.6199990361929 5.16783430446165
43.6399990357459 5.20524308352571
43.6599990352988 5.1101773550383
43.6799990348518 5.06797355559427
43.6999990344048 5.10972991421985
43.7199990339577 5.20569645202064
43.7399990335107 5.20576797843107
43.7599990330637 5.14418247550631
43.7799990326166 5.08706093535454
43.7999990321696 5.12709561185545
43.8199990317225 5.06720872769723
43.8399990312755 5.06800621905917
43.8599990308285 5.04377614987564
43.8799990303814 5.09125909267112
43.8999990299344 5.0633159391755
43.9199990294874 5.03533867256461
43.9399990290403 5.06731032037841
43.9599990285933 5.13175219173655
43.9799990281463 5.17115389603792
43.9999990276992 5.13199556643581
44.0199990272522 5.16513805450968
44.0399990268052 5.2157573194897
44.0599990263581 5.20779061796024
44.0799990259111 5.16237757604328
44.0999990254641 5.12886596209195
44.119999025017 5.14091004098215
44.13999902457 5.18146347977812
44.159999024123 5.19296178397736
44.1799990236759 5.20395042615794
44.1999990232289 5.18006657373423
44.2199990227818 5.23542240499233
44.2399990223348 5.28716175787371
44.2599990218878 5.2839372803061
44.2799990214407 5.21953853988076
44.2999990209937 5.20718923657619
44.3199990205467 5.28420073844192
44.3399990200996 5.43004881227468
44.3599990196526 5.50447267965615
44.3799990192056 5.49117849637089
44.3999990187585 5.50099230880238
44.4199990183115 5.5467915601654
44.4399990178645 5.62549220425805
44.4599990174174 5.68832704561468
44.4799990169704 5.76035002120777
44.4999990165234 5.79170722124222
44.5199990160763 5.96768676200777
44.5399990156293 6.1033254242308
44.5599990151823 6.17195130866923
44.5799990147352 6.05813123213234
44.5999990142882 5.95391323213645
44.6199990138412 5.99158705099037
44.6399990133941 5.96439232676737
44.6599990129471 5.91650570140605
44.6799990125 5.78182530997185
44.699999012053 5.71447447435543
44.719999011606 5.6380756227417
44.7399990111589 5.57036201533349
44.7599990107119 5.56328222340446
44.7799990102649 5.5641829089727
44.7999990098178 5.5927398687891
44.8199990093708 5.50356506420936
44.8399990089238 5.43865231770439
44.8599990084767 5.43721756074382
44.8799990080297 5.44795618154013
44.8999990075827 5.40827621853947
44.9199990071356 5.36404613709162
44.9399990066886 5.3599916070218
44.9599990062416 5.28352600123384
44.9799990057945 5.18645456991589
44.9999990053475 5.11250570295997
45.0199990049005 5.12506216563286
45.0399990044534 5.13359385497673
45.0599990040064 5.12812904571308
45.0799990035594 5.10756164609163
45.0999990031123 5.05897633225858
45.1199990026653 4.9996381197465
45.1399990022182 4.95272573247372
45.1599990017712 4.9389676982669
45.1799990013242 4.90387556386672
45.1999990008771 4.90479480787445
45.2199990004301 4.88540099795453
45.2399989999831 4.87046339012023
45.259998999536 4.81903996397779
45.279998999089 4.83781968490684
45.299998998642 4.88956393391162
45.3199989981949 4.93379986779245
45.3399989977479 4.91670934515155
45.3599989973009 4.95341418387133
45.3799989968538 5.01136184347058
45.3999989964068 5.00362517627882
45.4199989959598 4.92328000718366
45.4399989955127 4.87101965089496
45.4599989950657 4.88625779233597
45.4799989946187 4.90492159008747
45.4999989941716 4.85792823892268
45.5199989937246 4.80208222259293
45.5399989932776 4.75153152929732
45.5599989928305 4.88379826543065
45.5799989923835 4.8978471692132
45.5999989919364 4.95849657500832
45.6199989914894 4.91679050063542
45.6399989910424 4.94492250494744
45.6599989905953 4.88205355544739
45.6799989901483 4.89857891628592
45.6999989897013 4.90213520644557
45.7199989892542 4.99406641015292
45.7399989888072 4.97630656437854
45.7599989883602 4.98405255777184
45.7799989879131 4.95271605244464
45.7999989874661 4.96744006935078
45.8199989870191 4.99519460585219
45.839998986572 4.95659516480193
45.859998986125 4.86628558037533
45.879998985678 4.78758586878216
45.8999989852309 4.85700146927116
45.9199989847839 4.85412779942109
45.9399989843369 4.85161156069438
45.9599989838898 4.7798616677664
45.9799989834428 4.82408400791817
45.9999989829957 4.83658493482286
46.0199989825487 4.83171087351131
46.0399989821017 4.8242675459857
46.0599989816546 4.83693938404065
46.0799989812076 4.85527294060228
46.0999989807606 4.86990963392898
46.1199989803135 4.87047723217927
46.1399989798665 4.86990119077464
46.1599989794195 4.82546721628052
46.1799989789724 4.75204996945716
46.1999989785254 4.70999631071406
46.2199989780784 4.73263972625091
46.2399989776313 4.76406805623115
46.2599989771843 4.82468188668818
46.2799989767373 4.80821860947262
46.2999989762902 4.79485860364956
46.3199989758432 4.78655930886141
46.3399989753962 4.87156029613316
46.3599989749491 4.87173649468381
46.3799989745021 4.78981812868548
46.3999989740551 4.65029815443243
46.419998973608 4.68020458197809
46.439998973161 4.73863633795116
46.4599989727139 4.78734725789168
46.4799989722669 4.7999780852269
46.4999989718199 4.82173324985362
46.5199989713728 4.76921598879245
46.5399989709258 4.73775225799724
46.5599989704788 4.68950929296106
46.5799989700317 4.79288348045562
46.5999989695847 4.83881900202288
46.6199989691377 4.82714817035632
46.6399989686906 4.72194624303377
46.6599989682436 4.69713310035411
46.6799989677966 4.78940758794822
46.6999989673495 4.90565837421078
46.7199989669025 4.86625424706262
46.7399989664555 4.77120411663479
46.7599989660084 4.66531594808524
46.7799989655614 4.72386692335618
46.7999989651144 4.75292793931084
46.8199989646673 4.85496638418909
46.8399989642203 4.83750444902892
46.8599989637733 4.90662964659714
46.8799989633262 4.85257279509115
46.8999989628792 4.85891766306096
46.9199989624321 4.79043015369451
46.9399989619851 4.74733645186295
46.9599989615381 4.72690950442812
46.979998961091 4.73072172047336
46.999998960644 4.8103851919984
47.019998960197 4.87460985311456
47.0399989597499 4.86291004474354
47.0599989593029 4.81501895519686
47.0799989588559 4.79395155018225
47.0999989584088 4.91103248331003
47.1199989579618 4.92863371775768
47.1399989575148 4.82552435077987
47.1599989570677 4.72694926587752
47.1799989566207 4.79438297737083
47.1999989561737 4.83046378142306
47.2199989557266 4.76185635013543
47.2399989552796 4.70000896803373
47.2599989548326 4.75526454425138
47.2799989543855 4.80718213458692
47.2999989539385 4.86043364902666
47.3199989534914 4.84886239800363
47.3399989530444 4.86410763571365
47.3599989525974 4.85761889765514
47.3799989521503 4.85022217219234
47.3999989517033 4.78909089371063
47.4199989512563 4.70650226581107
47.4399989508092 4.7209370299272
47.4599989503622 4.71919282731996
47.4799989499152 4.73033569878679
47.4999989494681 4.72897919853222
47.5199989490211 4.75471774977741
47.5399989485741 4.72335713051278
47.559998948127 4.66896084549285
47.57999894768 4.66185453904848
47.599998947233 4.68733591904592
47.6199989467859 4.73773882603442
47.6399989463389 4.77904298032024
47.6599989458919 4.80136085047933
47.6799989454448 4.75979534851813
47.6999989449978 4.71425912111779
47.7199989445508 4.72861128518952
47.7399989441037 4.70369000646164
47.7599989436567 4.70510507488933
47.7799989432096 4.65586624023332
47.7999989427626 4.71143257643162
47.8199989423156 4.65907223656685
47.8399989418685 4.58504918548406
47.8599989414215 4.56048437159264
47.8799989409745 4.58775367861486
47.8999989405274 4.63403556523424
47.9199989400804 4.69447610943908
47.9399989396334 4.64454141764016
47.9599989391863 4.71444265342275
47.9799989387393 4.6337437602015
47.9999989382923 4.55192611186899
48.0199989378452 4.44794379966987
48.0399989373982 4.49787322090524
48.0599989369512 4.56844358087785
48.0799989365041 4.64088887941737
48.0999989360571 4.6866737451317
48.1199989356101 4.69007982312168
48.139998935163 4.71156847900002
48.159998934716 4.59216986601797
48.179998934269 4.65656588637982
48.1999989338219 4.58185828139406
48.2199989333749 4.63575070304316
48.2399989329278 4.57179435076288
48.2599989324808 4.53524679146114
48.2799989320338 4.56493194934534
48.2999989315867 4.66983425815089
48.3199989311397 4.74695779574067
48.3399989306927 4.70325749154348
48.3599989302456 4.65244709388388
48.3799989297986 4.63925863319174
48.3999989293516 4.67048613010261
48.4199989289045 4.59647457356301
48.4399989284575 4.55656780626048
48.4599989280105 4.55802612026743
48.4799989275634 4.6568523124395
48.4999989271164 4.65276289918942
48.5199989266694 4.61209944565376
48.5399989262223 4.55935335740097
48.5599989257753 4.60386539869141
48.5799989253283 4.66716703185629
48.5999989248812 4.71134841042908
48.6199989244342 4.71907759896736
48.6399989239872 4.64265767867645
48.6599989235401 4.61887271390874
48.6799989230931 4.630810643065
48.699998922646 4.67033912223478
48.719998922199 4.64417029900932
48.739998921752 4.57720572027606
48.7599989213049 4.52113108762345
48.7799989208579 4.56933475627993
48.7999989204109 4.61454404967198
48.8199989199638 4.58000619670087
48.8399989195168 4.53079036907974
48.8599989190698 4.49669401187205
48.8799989186227 4.53168569370169
48.8999989181757 4.55529346957483
48.9199989177287 4.54863046581232
48.9399989172816 4.53193786449948
48.9599989168346 4.5228252482052
48.9799989163876 4.5599918064031
48.9999989159405 4.67791399949991
49.0199989154935 4.71790167805979
49.0399989150465 4.74729650563366
49.0599989145994 4.73529355877875
49.0799989141524 4.66214441265994
49.0999989137053 4.59140584106693
49.1199989132583 4.51054253944917
49.1399989128113 4.48916142963886
49.1599989123642 4.44472882485151
49.1799989119172 4.47359958681451
49.1999989114702 4.47499917887866
49.2199989110231 4.56912898629314
49.2399989105761 4.57934180093023
49.2599989101291 4.62663005227625
49.279998909682 4.52459249325318
49.299998909235 4.5073218463641
49.319998908788 4.55137036350715
49.3399989083409 4.65390773918665
49.3599989078939 4.60885821947104
49.3799989074469 4.56574247490518
49.3999989069998 4.57736683901226
49.4199989065528 4.63468682836669
49.4399989061058 4.67787810546368
49.4599989056587 4.65510725146092
49.4799989052117 4.65045172053233
49.4999989047647 4.57169862759838
49.5199989043176 4.49537278865965
49.5399989038706 4.48614943275838
49.5599989034235 4.56881100693305
49.5799989029765 4.63911218604279
49.5999989025295 4.6789330576455
49.6199989020824 4.65399408848635
49.6399989016354 4.63666921354198
49.6599989011884 4.61370150096283
49.6799989007413 4.5274793657113
49.6999989002943 4.48398930893767
49.7199988998473 4.43517126987724
49.7399988994002 4.46767047189464
49.7599988989532 4.55906654225151
49.7799988985062 4.57997104415067
49.7999988980591 4.639157921846
49.8199988976121 4.62793668690981
49.8399988971651 4.63404646603927
49.859998896718 4.61338808194562
49.879998896271 4.59910053642046
49.899998895824 4.58299875818435
49.9199988953769 4.55934867439111
49.9399988949299 4.50030240594615
49.9599988944829 4.46492849246105
49.9799988940358 4.48559760066481
49.9999988935888 4.56750755377945
50.0199988931417 4.70326589503305
50.0399988926947 4.70498901130333
50.0599988922477 4.62458421981804
50.0799988918006 4.52800872541815
50.0999988913536 4.5308315761278
50.1199988909066 4.56586982988065
50.1399988904595 4.51547402173453
50.1599988900125 4.45486001564759
50.1799988895655 4.4797694292724
50.1999988891184 4.5266784420199
50.2199988886714 4.55452872804277
50.2399988882244 4.46467619820485
50.2599988877773 4.47451040246069
50.2799988873303 4.49150156789085
50.2999988868833 4.45183234789468
50.3199988864362 4.41074043138418
50.3399988859892 4.37203568809461
50.3599988855422 4.42908234792992
50.3799988850951 4.44137490414215
50.3999988846481 4.42275377910135
50.4199988842011 4.43688349997132
50.439998883754 4.44362735163905
50.459998883307 4.50341692318552
50.4799988828599 4.47990475381332
50.4999988824129 4.44683904471195
50.5199988819659 4.39477364879115
50.5399988815188 4.38890249610205
50.5599988810718 4.4685251862009
50.5799988806248 4.50521599478015
50.5999988801777 4.53204039671109
50.6199988797307 4.54038564959585
50.6399988792837 4.569216945367
50.6599988788366 4.59344390452441
50.6799988783896 4.5526002266369
50.6999988779426 4.53680321766144
50.7199988774955 4.52880086468713
50.7399988770485 4.54528552704099
50.7599988766015 4.57667753184889
50.7799988761544 4.58970120105975
50.7999988757074 4.67252042679195
50.8199988752604 4.64615669944423
50.8399988748133 4.59299661540897
50.8599988743663 4.52205596202147
50.8799988739192 4.46695314741352
50.8999988734722 4.49481860449835
50.9199988730252 4.39029715213952
50.9399988725781 4.40087806687412
50.9599988721311 4.36929582180111
50.9799988716841 4.4356575865642
50.999998871237 4.44752013013009
51.01999887079 4.43287410610133
51.039998870343 4.45993575738577
51.0599988698959 4.4730151083327
51.0799988694489 4.50222580778844
51.0999988690019 4.47029373948189
51.1199988685548 4.47223298022805
51.1399988681078 4.4816473435966
51.1599988676608 4.54689344578814
51.1799988672137 4.52824049222038
51.1999988667667 4.43963716356256
51.2199988663197 4.37883758545686
51.2399988658726 4.44720269143543
51.2599988654256 4.5635774321474
51.2799988649786 4.58252149530235
51.2999988645315 4.52566734514028
51.3199988640845 4.50435222426407
51.3399988636374 4.50528978482283
51.3599988631904 4.5428729800052
51.3799988627434 4.58384246906868
51.3999988622963 4.58958762019028
51.4199988618493 4.59375037980782
51.4399988614023 4.57314665749646
51.4599988609552 4.66964765877203
51.4799988605082 4.69511574555754
51.4999988600612 4.61921409493163
51.5199988596141 4.48521637317617
51.5399988591671 4.4583890264595
51.5599988587201 4.55972047659101
51.579998858273 4.58903126897697
51.599998857826 4.64298071604853
51.619998857379 4.69998293265556
51.6399988569319 4.70666475790115
51.6599988564849 4.71021137077484
51.6799988560379 4.69202892042089
51.6999988555908 4.76912333129737
51.7199988551438 4.7754768219408
51.7399988546968 4.77940761417521
51.7599988542497 4.78018931293119
51.7799988538027 4.74020488960149
51.7999988533556 4.77641082625559
51.8199988529086 4.83032968355427
51.8399988524616 4.85116784199727
51.8599988520145 4.75368642408824
51.8799988515675 4.65766707216785
51.8999988511205 4.61735704311922
51.9199988506734 4.60133812928684
51.9399988502264 4.5820782440524
51.9599988497794 4.56415437999396
51.9799988493323 4.61325903261488
51.9999988488853 4.61167409688233
52.0199988484383 4.61966386618786
52.0399988479912 4.55990613828954
52.0599988475442 4.5083134728937
52.0799988470972 4.51485634384151
52.0999988466501 4.56340726279056
52.1199988462031 4.63661337849301
52.1399988457561 4.64028079694672
52.159998845309 4.58253915856199
52.179998844862 4.6100996810348
52.1999988444149 4.58900530878479
52.2199988439679 4.55939806116145
52.2399988435209 4.50686164860803
52.2599988430738 4.45402538800583
52.2799988426268 4.45783947931465
52.2999988421798 4.42534916733252
52.3199988417327 4.4767038601513
52.3399988412857 4.50492004363257
52.3599988408387 4.52636919027864
52.3799988403916 4.44562501087579
52.3999988399446 4.40559640662776
52.4199988394976 4.32793308288376
52.4399988390505 4.31799973562057
52.4599988386035 4.3711875742511
52.4799988381565 4.40772042628938
52.4999988377094 4.46326552537366
52.5199988372624 4.44694139485109
52.5399988368154 4.44968444808426
52.5599988363683 4.43827950050784
52.5799988359213 4.44052800981365
52.5999988354743 4.45763070801831
52.6199988350272 4.45737650156318
52.6399988345802 4.44066341294721
52.6599988341331 4.46290964787416
52.6799988336861 4.46504323477544
52.6999988332391 4.46247564960207
52.719998832792 4.49548090545957
52.739998832345 4.54564144533336
52.759998831898 4.55831468950237
52.7799988314509 4.52848865845826
52.7999988310039 4.4730171610721
52.8199988305569 4.4182215909381
52.8399988301098 4.39920128165748
52.8599988296628 4.43837947247396
52.8799988292158 4.51603004224221
52.8999988287687 4.50140393281387
52.9199988283217 4.48010131110315
52.9399988278747 4.40247777398031
52.9599988274276 4.38435694311255
52.9799988269806 4.31673485615718
52.9999988265336 4.33697230418649
53.0199988260865 4.3887414797282
53.0399988256395 4.46120662618971
53.0599988251925 4.43712767835411
53.0799988247454 4.4133231013313
53.0999988242984 4.3936282625959
53.1199988238513 4.4462768072533
53.1399988234043 4.46321421356626
53.1599988229573 4.42126640089078
53.1799988225102 4.38383621261131
53.1999988220632 4.37161145622031
53.2199988216162 4.4567480297867
53.2399988211691 4.46614504913999
53.2599988207221 4.49968260423918
53.2799988202751 4.48143897721655
53.299998819828 4.47291936818857
53.319998819381 4.48116010870926
53.339998818934 4.51423115826354
53.3599988184869 4.5093893407976
53.3799988180399 4.40669578232896
53.3999988175929 4.35382615582067
53.4199988171458 4.34467375052403
53.4399988166988 4.3045488629914
53.4599988162518 4.25840147012463
53.4799988158047 4.33844694298611
53.4999988153577 4.53928098661444
53.5199988149107 4.67311098624476
53.5399988144636 4.711536418437
53.5599988140166 4.53846784091752
53.5799988135695 4.39524306396482
53.5999988131225 4.28615968525721
53.6199988126755 4.34971415131298
53.6399988122284 4.4077173927814
53.6599988117814 4.42100308531475
53.6799988113344 4.44835229849514
53.6999988108873 4.37696755090778
53.7199988104403 4.38886073260632
53.7399988099933 4.38177728861673
53.7599988095462 4.44899723036022
53.7799988090992 4.44309593163854
53.7999988086522 4.41228319536813
53.8199988082051 4.42749834136727
53.8399988077581 4.47383961904895
53.8599988073111 4.47642018746631
53.879998806864 4.44931839770228
53.899998806417 4.40464055898446
53.91999880597 4.47287694206377
53.9399988055229 4.46113291588651
53.9599988050759 4.42450200008612
53.9799988046288 4.35177452561306
53.9999988041818 4.35808506582951
54.0199988037348 4.44514858405167
54.0399988032877 4.5048458227182
54.0599988028407 4.4986954904165
54.0799988023937 4.49374917123819
54.0999988019466 4.54289737345048
54.1199988014996 4.56074566858607
54.1399988010526 4.5243962489643
54.1599988006055 4.40477055003931
54.1799988001585 4.38841177707291
54.1999987997115 4.40654396078936
54.2199987992644 4.42168486638363
54.2399987988174 4.412431392658
54.2599987983704 4.37056139362182
54.2799987979233 4.38715404138222
54.2999987974763 4.35314802250694
54.3199987970293 4.32117919352338
54.3399987965822 4.36402431146207
54.3599987961352 4.3821455741859
54.3799987956882 4.36369163766052
54.3999987952411 4.33625895855864
54.4199987947941 4.39723076593763
54.439998794347 4.53513918278388
54.4599987939 4.52958493258307
54.479998793453 4.43710696203097
54.4999987930059 4.38589822734984
54.5199987925589 4.41177142482729
54.5399987921119 4.42373749416241
54.5599987916648 4.42928675791544
54.5799987912178 4.44893976512962
54.5999987907708 4.54009384562849
54.6199987903237 4.50853617062699
54.6399987898767 4.46776834714878
54.6599987894297 4.42515399071733
54.6799987889826 4.40720230851208
54.6999987885356 4.44437408366845
54.7199987880886 4.44138159690276
54.7399987876415 4.50586712242338
54.7599987871945 4.43598238479331
54.7799987867475 4.3920853194486
54.7999987863004 4.3389933102148
54.8199987858534 4.42762723137961
54.8399987854064 4.45512007613048
54.8599987849593 4.42284126048101
54.8799987845123 4.28713753807245
54.8999987840652 4.26295149638529
54.9199987836182 4.27989063636973
54.9399987831712 4.35381985856162
54.9599987827241 4.40762491642853
54.9799987822771 4.36740965493719
54.9999987818301 4.36092925298875
55.019998781383 4.29697204442539
55.039998780936 4.28515957293248
55.059998780489 4.27327971513204
55.0799987800419 4.28542873198875
55.0999987795949 4.33510405785031
55.1199987791479 4.34426622179278
55.1399987787008 4.3617505671846
55.1599987782538 4.36320931469397
55.1799987778068 4.35026390955221
55.1999987773597 4.3961102898382
55.2199987769127 4.46229224540907
55.2399987764657 4.50899205127514
55.2599987760186 4.48474699052166
55.2799987755716 4.47118862511073
55.2999987751246 4.42257974406059
55.3199987746775 4.41383303353335
55.3399987742305 4.43943495394761
55.3599987737834 4.50574410735084
55.3799987733364 4.55672176100605
55.3999987728894 4.53219720085439
55.4199987724423 4.51271401618127
55.4399987719953 4.49022467667182
55.4599987715483 4.54635093649367
55.4799987711012 4.56255297077814
55.4999987706542 4.59556433639416
55.5199987702072 4.67150191228651
55.5399987697601 4.71161462699194
55.5599987693131 4.76566137536681
55.5799987688661 4.76930748037787
55.599998768419 4.74669713594087
55.619998767972 4.63640567450011
55.639998767525 4.63399483129833
55.6599987670779 4.69324886093793
55.6799987666309 4.66553210511738
55.6999987661839 4.57706139255494
55.7199987657368 4.53906316625593
55.7399987652898 4.6345478893817
55.7599987648427 4.61269344812341
55.7799987643957 4.56655299526331
55.7999987639487 4.46367198582733
55.8199987635016 4.43385109650775
55.8399987630546 4.47047022100618
55.8599987626076 4.50045852234557
55.8799987621605 4.53203309007273
55.8999987617135 4.59477442881912
55.9199987612665 4.6185452949104
55.9399987608194 4.64560452853802
55.9599987603724 4.64304805401975
55.9799987599254 4.72283516146494
55.9999987594783 4.68451920505044
56.0199987590313 4.54331011963425
56.0399987585843 4.53887552832609
56.0599987581372 4.67816987256053
56.0799987576902 4.75302098295506
56.0999987572432 4.70242663128551
56.1199987567961 4.60168443055743
56.1399987563491 4.65296890665756
56.1599987559021 4.64188722834415
56.179998755455 4.7023703757293
56.199998755008 4.81139994976921
56.2199987545609 4.92019940450662
56.2399987541139 4.93944459485255
56.2599987536669 4.90081960690912
56.2799987532198 4.83862062604031
56.2999987527728 4.80074367799624
56.3199987523258 4.77028384997166
56.3399987518787 4.88716143001062
56.3599987514317 5.01009102571022
56.3799987509847 5.14252786517526
56.3999987505376 5.24534460196099
56.4199987500906 5.3445886702373
56.4399987496436 5.51552083038928
56.4599987491965 5.55745625198931
56.4799987487495 5.5058678643273
56.4999987483025 5.28566063487908
56.5199987478554 5.00757468086073
56.5399987474084 4.80906621663123
56.5599987469614 4.86431394067931
56.5799987465143 5.11175221793029
56.5999987460673 5.219628874459
56.6199987456203 5.19931239425179
56.6399987451732 5.03928233697789
56.6599987447262 5.09754564118518
56.6799987442791 5.13267831060417
56.6999987438321 5.39075618398417
56.7199987433851 5.41417642447329
56.739998742938 5.53495058731176
56.759998742491 5.5146540721913
56.779998742044 5.50556752921592
56.7999987415969 5.41764683570625
56.8199987411499 5.36533711771683
56.8399987407029 5.6427499051969
56.8599987402558 6.28393772745189
56.8799987398088 6.57836445543686
56.8999987393618 6.15943496719037
