'Id: "" Comment: "Integrate frame 2018_8-7 FAGACs_2p5FASCN001.gfrmwith cursor Full Frame Cursor #5" Operator: "MAF user" Anode: "Cu" Scantype: "TwoTheta" TimePerStep: "90" 
10.7399997711182 6.62254666867451
10.7599997706711 5.59383638117075
10.7799997702241 5.59404825327823
10.7999997697771 5.66457611291388
10.81999976933 5.72784591802555
10.839999768883 5.60149568953389
10.859999768436 5.47482697215708
10.8799997679889 5.15695033409992
10.8999997675419 5.09657008092179
10.9199997670949 4.99715855247312
10.9399997666478 4.8968646646898
10.9599997662008 4.93147350599995
10.9799997657537 4.94759983468408
10.9999997653067 5.04551051633393
11.0199997648597 4.94698368957115
11.0399997644126 4.93517741848079
11.0599997639656 4.86109367348815
11.0799997635186 4.95997965611693
11.0999997630715 4.92153438142485
11.1199997626245 4.78290263368744
11.1399997621775 4.64379136143175
11.1599997617304 4.67185480504417
11.1799997612834 4.72937592304864
11.1999997608364 4.73072320369579
11.2199997603893 4.5944798119383
11.2399997599423 4.49942593455133
11.2599997594953 4.4602632219305
11.2799997590482 4.61557385113586
11.2999997586012 4.72714097267478
11.3199997581542 4.73729780526636
11.3399997577071 4.68675397935066
11.3599997572601 4.72044239438007
11.379999756813 4.73504171483568
11.399999756366 4.71564503085772
11.419999755919 4.69235519500268
11.4399997554719 4.73374330944211
11.4599997550249 4.73225050388965
11.4799997545779 4.76368450271324
11.4999997541308 4.84176811769355
11.5199997536838 4.89759833124017
11.5399997532368 4.94889296663892
11.5599997527897 4.91217211025446
11.5799997523427 4.82470621404034
11.5999997518957 4.6699317645281
11.6199997514486 4.57367026532101
11.6399997510016 4.6175995216187
11.6599997505546 4.71560475804448
11.6799997501075 4.6855189507098
11.6999997496605 4.6548926964415
11.7199997492135 4.58016397352411
11.7399997487664 4.69014055864826
11.7599997483194 4.77495212896659
11.7799997478724 4.81476463398308
11.7999997474253 4.77344302863433
11.8199997469783 4.67793484245551
11.8399997465312 4.57288759765518
11.8599997460842 4.5658101800923
11.8799997456372 4.5783938008788
11.8999997451901 4.69203397777581
11.9199997447431 4.6921393181593
11.9399997442961 4.7447359505506
11.959999743849 4.71396254391415
11.979999743402 4.75798890390339
11.999999742955 4.69394624310351
12.0199997425079 4.59578245568343
12.0399997420609 4.55178786847832
12.0599997416139 4.50877308413777
12.0799997411668 4.53536787834774
12.0999997407198 4.50990263878669
12.1199997402728 4.57772064797654
12.1399997398257 4.59499269834618
12.1599997393787 4.66261413009785
12.1799997389317 4.72554588295325
12.1999997384846 4.80170426046746
12.2199997380376 4.82397266530052
12.2399997375906 4.71700682277717
12.2599997371435 4.62337715647177
12.2799997366965 4.62302715786451
12.2999997362494 4.74731472292443
12.3199997358024 4.82114876800823
12.3399997353554 4.80078215153762
12.3599997349083 4.67714011635573
12.3799997344613 4.54109046444631
12.3999997340143 4.55780454590164
12.4199997335672 4.63079760954507
12.4399997331202 4.68507505369163
12.4599997326732 4.63286510474035
12.4799997322261 4.66085134774955
12.4999997317791 4.73978977575744
12.5199997313321 4.75526442530841
12.539999730885 4.67611561349064
12.559999730438 4.62176920673725
12.579999729991 4.63679408905435
12.5999997295439 4.65002784227454
12.6199997290969 4.66098715345565
12.6399997286499 4.64031762081141
12.6599997282028 4.70745675799554
12.6799997277558 4.69125147539446
12.6999997273088 4.62849454750894
12.7199997268617 4.49715495951089
12.7399997264147 4.48577741334467
12.7599997259676 4.51143305006174
12.7799997255206 4.62796325203052
12.7999997250736 4.71226137928856
12.8199997246265 4.77910666521186
12.8399997241795 4.685152290747
12.8599997237325 4.61067584990634
12.8799997232854 4.6438939768698
12.8999997228384 4.76401145210837
12.9199997223914 4.80870491184672
12.9399997219443 4.70263758827558
12.9599997214973 4.56811405401898
12.9799997210503 4.56177792687784
12.9999997206032 4.66576870110561
13.0199997201562 4.7254887315628
13.0399997197092 4.73410640809843
13.0599997192621 4.66324556598758
13.0799997188151 4.661851347987
13.0999997183681 4.63731154108619
13.119999717921 4.680483825145
13.139999717474 4.6564067522626
13.1599997170269 4.59759995198242
13.1799997165799 4.56329218901172
13.1999997161329 4.61499164844956
13.2199997156858 4.68052634972787
13.2399997152388 4.66802472526781
13.2599997147918 4.70669510319202
13.2799997143447 4.6826559338545
13.2999997138977 4.69660403729114
13.3199997134507 4.70437558517202
13.3399997130036 4.77110135783907
13.3599997125566 4.83529761889161
13.3799997121096 4.79070349953306
13.3999997116625 4.75871818423975
13.4199997112155 4.70577466354425
13.4399997107685 4.68113478513447
13.4599997103214 4.65677514758314
13.4799997098744 4.61875665928204
13.4999997094274 4.64020294614266
13.5199997089803 4.68406761669323
13.5399997085333 4.72112328988057
13.5599997080863 4.66426044561328
13.5799997076392 4.5979185018428
13.5999997071922 4.56278398895883
13.6199997067451 4.58043721648008
13.6399997062981 4.59148887164146
13.6599997058511 4.65379622965844
13.679999705404 4.67979557994758
13.699999704957 4.67797764615275
13.71999970451 4.6787932909638
13.7399997040629 4.71306812952205
13.7599997036159 4.80355197302115
13.7799997031689 4.79129985576273
13.7999997027218 4.71320660324243
13.8199997022748 4.63518520953047
13.8399997018278 4.58085702647139
13.8599997013807 4.60649374315458
13.8799997009337 4.63529009236522
13.8999997004867 4.70459830191818
13.9199997000396 4.71484864288076
13.9399996995926 4.77880499707822
13.9599996991456 4.8041425742149
13.9799996986985 4.87437776354508
13.9999996982515 4.81628901584681
14.0199996978045 4.7370967674743
14.0399996973574 4.67195897515301
14.0599996969104 4.71674243918816
14.0799996964633 4.83085039379606
14.0999996960163 4.83144422481419
14.1199996955693 4.81548216143196
14.1399996951222 4.82256066722313
14.1599996946752 4.85045999701162
14.1799996942282 4.82558888063806
14.1999996937811 4.80765683818044
14.2199996933341 4.78541737670034
14.2399996928871 4.79426335261634
14.25999969244 4.83998616603276
14.279999691993 4.92631931048164
14.299999691546 4.98443647999401
14.3199996910989 5.02365633281324
14.3399996906519 5.03656253511987
14.3599996902049 5.0385655420895
14.3799996897578 5.04943384086861
14.3999996893108 5.09102141647114
14.4199996888638 5.09953057153375
14.4399996884167 5.14771788204593
14.4599996879697 5.34999477177746
14.4799996875226 5.42764441999049
14.4999996870756 5.47611215526112
14.5199996866286 5.74368388013858
14.5399996861815 6.01964785313288
14.5599996857345 6.3734891722849
14.5799996852875 7.52811256158365
14.5999996848404 8.83698888847969
14.6199996843934 10.9689275867299
14.6399996839464 18.5526337957274
14.6599996834993 24.0891818912129
14.6799996830523 29.0181565009655
14.6999996826053 40.4742757684784
14.7199996821582 44.1479633931689
14.7399996817112 44.2867425290977
14.7599996812642 38.4042911600961
14.7799996808171 33.5268637218297
14.7999996803701 29.4007789951407
14.8199996799231 19.307143126715
14.839999679476 14.3036925222677
14.859999679029 11.7990852743554
14.879999678582 8.39365985803449
14.8999996781349 6.75320843248569
14.9199996776879 6.16066657013111
14.9399996772408 5.61459286025995
14.9599996767938 5.38257902916197
14.9799996763468 5.29235394600167
14.9999996758997 5.15214924285696
15.0199996754527 5.07809407008369
15.0399996750057 5.02429988402475
15.0599996745586 4.94775170872495
15.0799996741116 4.90485285406822
15.0999996736646 4.86524502147116
15.1199996732175 4.85785727152926
15.1399996727705 4.84218695367891
15.1599996723235 4.86637836541038
15.1799996718764 4.94875328131885
15.1999996714294 4.97269813972227
15.2199996709824 4.94038135152598
15.2399996705353 4.88907021912873
15.2599996700883 4.90679972844808
15.2799996696413 4.88478793299047
15.2999996691942 4.82423681965675
15.3199996687472 4.77638895709601
15.3399996683002 4.76144799006322
15.3599996678531 4.75530372108543
15.3799996674061 4.76943231645326
15.399999666959 4.8143391731406
15.419999666512 4.79873076170615
15.439999666065 4.77086696288825
15.4599996656179 4.76668283009666
15.4799996651709 4.80959498738808
15.4999996647239 4.7893303148907
15.5199996642768 4.79320031123625
15.5399996638298 4.79074423498462
15.5599996633828 4.73503879494458
15.5799996629357 4.68783564073523
15.5999996624887 4.70786883429381
15.6199996620417 4.76169382598107
15.6399996615946 4.79904020241949
15.6599996611476 4.86735287149913
15.6799996607006 4.86103995161605
15.6999996602535 4.81589475676401
15.7199996598065 4.76429764860974
15.7399996593595 4.78370540692814
15.7599996589124 4.83760896743932
15.7799996584654 4.83486081555696
15.7999996580184 4.82360946522094
15.8199996575713 4.78687517505136
15.8399996571243 4.78839386224508
15.8599996566772 4.80565404122276
15.8799996562302 4.82308405025287
15.8999996557832 4.80840376295297
15.9199996553361 4.76457107853971
15.9399996548891 4.72243894895786
15.9599996544421 4.68709086169571
15.979999653995 4.74058442432438
15.999999653548 4.80211693353869
16.019999653101 4.83809327554086
16.0399996526539 4.81961260321784
16.0599996522069 4.82680542562163
16.0799996517599 4.86598735779267
16.0999996513128 4.94149937479042
16.1199996508658 4.95747558893477
16.1399996504188 4.90283574384531
16.1599996499717 4.80116305835972
16.1799996495247 4.78531378947772
16.1999996490777 4.83358585496076
16.2199996486306 4.91541924784971
16.2399996481836 4.96798861691395
16.2599996477365 4.97717146219149
16.2799996472895 4.95655872401549
16.2999996468425 4.90148426255246
16.3199996463954 4.88570601177063
16.3399996459484 4.85893355967219
16.3599996455014 4.82365140867725
16.3799996450543 4.8125915464872
16.3999996446073 4.8512858571353
16.4199996441603 4.87071626519242
16.4399996437132 4.84427843012303
16.4599996432662 4.80952008268702
16.4799996428192 4.83512461645024
16.4999996423721 4.87978303531341
16.5199996419251 4.88578177994122
16.5399996414781 4.89413958919338
16.559999641031 4.94838044738898
16.579999640584 5.02690913366262
16.599999640137 5.03558764824619
16.6199996396899 4.97065212417593
16.6399996392429 4.87117872186836
16.6599996387959 4.85665167932491
16.6799996383488 4.84562955176935
16.6999996379018 4.8723385187769
16.7199996374547 4.8748885092412
16.7399996370077 4.87289748429212
16.7599996365607 4.89513974067063
16.7799996361136 4.9091491270406
16.7999996356666 4.9842677296295
16.8199996352196 4.98911984337287
16.8399996347725 4.97727366541427
16.8599996343255 4.93974445671883
16.8799996338785 4.89708022426615
16.8999996334314 4.92718037604808
16.9199996329844 4.94164455734932
16.9399996325374 4.97166271054107
16.9599996320903 4.98965570213816
16.9799996316433 4.98949709987792
16.9999996311963 4.96917960203656
17.0199996307492 4.92348098689018
17.0399996303022 4.91002312272435
17.0599996298552 4.94022670600215
17.0799996294081 4.9374531654903
17.0999996289611 4.96685108485288
17.1199996285141 4.97259288883917
17.139999628067 5.01124152914606
17.15999962762 5.01045337601601
17.1799996271729 4.98296526712436
17.1999996267259 5.0309166157731
17.2199996262789 5.07308928407383
17.2399996258318 5.10854420069288
17.2599996253848 5.05142143440886
17.2799996249378 5.05484098047266
17.2999996244907 5.05930332590108
17.3199996240437 5.02089469614629
17.3399996235967 4.94689789330241
17.3599996231496 4.91483252720881
17.3799996227026 4.99265066985112
17.3999996222556 5.07869912657736
17.4199996218085 5.06473407843496
17.4399996213615 4.98507988512292
17.4599996209145 4.94392727515992
17.4799996204674 4.94066055348362
17.4999996200204 4.97327478888464
17.5199996195734 4.99528496725726
17.5399996191263 5.02453814855588
17.5599996186793 5.03660112804509
17.5799996182323 5.03131486806482
17.5999996177852 5.04989530643596
17.6199996173382 5.06720840665099
17.6399996168911 5.07136545299074
17.6599996164441 5.02395125000633
17.6799996159971 4.95909036933266
17.69999961555 4.93526062753987
17.719999615103 4.94934095701033
17.739999614656 5.01389923975624
17.7599996142089 5.07775290943474
17.7799996137619 5.07155035688605
17.7999996133149 5.07557986746571
17.8199996128678 5.08733490833043
17.8399996124208 5.15075586133545
17.8599996119738 5.17765817319533
17.8799996115267 5.22333721821945
17.8999996110797 5.21970223644728
17.9199996106327 5.23357813811638
17.9399996101856 5.2447023200594
17.9599996097386 5.25940224524354
17.9799996092916 5.24404761676072
17.9999996088445 5.19070511976846
18.0199996083975 5.11549679661068
18.0399996079504 5.109304217111
18.0599996075034 5.13984032292512
18.0799996070564 5.15134033271364
18.0999996066093 5.10389722079181
18.1199996061623 5.12160068795981
18.1399996057153 5.16969477578911
18.1599996052682 5.22493635209299
18.1799996048212 5.27070166294633
18.1999996043742 5.31856530952658
18.2199996039271 5.31727316683898
18.2399996034801 5.28558432939928
18.2599996030331 5.24588311746257
18.279999602586 5.26751533780673
18.299999602139 5.28595220379204
18.319999601692 5.2820521137995
18.3399996012449 5.20671036427958
18.3599996007979 5.2035507188405
18.3799996003509 5.28667275174856
18.3999995999038 5.31112231006594
18.4199995994568 5.29890497453345
18.4399995990098 5.23624297696568
18.4599995985627 5.19916689320788
18.4799995981157 5.22701262787581
18.4999995976686 5.25109570257771
18.5199995972216 5.32597585170376
18.5399995967746 5.29674690444906
18.5599995963275 5.26178787543957
18.5799995958805 5.22757504812348
18.5999995954335 5.25931726898481
18.6199995949864 5.29591368614894
18.6399995945394 5.32964838372176
18.6599995940924 5.34489047925329
18.6799995936453 5.39469426562713
18.6999995931983 5.44434764185642
18.7199995927513 5.45642130803797
18.7399995923042 5.41172850182358
18.7599995918572 5.39470914114223
18.7799995914102 5.37173549520766
18.7999995909631 5.3374928570711
18.8199995905161 5.33163279572306
18.8399995900691 5.3829671451052
18.859999589622 5.44795147946491
18.879999589175 5.47895172452058
18.899999588728 5.44127014405621
18.9199995882809 5.48335388781399
18.9399995878339 5.5224215329246
18.9599995873868 5.55352381625766
18.9799995869398 5.48792960452142
18.9999995864928 5.43545107996564
19.0199995860457 5.45921113259796
19.0399995855987 5.4893976406556
19.0599995851517 5.47396758524995
19.0799995847046 5.41891065901001
19.0999995842576 5.44958220645188
19.1199995838106 5.49450789973276
19.1399995833635 5.52603648145628
19.1599995829165 5.54270436953691
19.1799995824695 5.57639853108246
19.1999995820224 5.57962760992227
19.2199995815754 5.5070583488547
19.2399995811284 5.49127324284448
19.2599995806813 5.51453201786269
19.2799995802343 5.57641220128269
19.2999995797873 5.56534695133926
19.3199995793402 5.53899062301507
19.3399995788932 5.52633441173567
19.3599995784462 5.5143268245522
19.3799995779991 5.51360923857963
19.3999995775521 5.54781075197134
19.419999577105 5.56781559707613
19.439999576658 5.61127144021155
19.459999576211 5.71555945178095
19.4799995757639 5.79663195699319
19.4999995753169 5.7986584895736
19.5199995748699 5.76262509383166
19.5399995744228 5.70407549578395
19.5599995739758 5.61917798226696
19.5799995735288 5.59572964684842
19.5999995730817 5.6225166254038
19.6199995726347 5.65996574507539
19.6399995721877 5.65982517280482
19.6599995717406 5.67563298104984
19.6799995712936 5.70769178754547
19.6999995708466 5.70362355150692
19.7199995703995 5.71203903076141
19.7399995699525 5.765442169706
19.7599995695055 5.79959688725977
19.7799995690584 5.81892670615669
19.7999995686114 5.80340798208163
19.8199995681643 5.79548576808569
19.8399995677173 5.77622114544214
19.8599995672703 5.7517010084738
19.8799995668232 5.75454431027747
19.8999995663762 5.77976449508226
19.9199995659292 5.78951490032272
19.9399995654821 5.77915117629662
19.9599995650351 5.7989004966722
19.9799995645881 5.91049479556438
19.999999564141 6.00248376220821
20.019999563694 5.97920045292863
20.039999563247 5.92568197189844
20.0599995627999 5.92142491424864
20.0799995623529 5.88539571029699
20.0999995619059 5.86092182616035
20.1199995614588 5.89637516071141
20.1399995610118 5.97200792964268
20.1599995605648 5.97681328540313
20.1799995601177 5.97313783854829
20.1999995596707 5.9860861295217
20.2199995592237 5.98945913548247
20.2399995587766 5.9285430230962
20.2599995583296 5.88494066835691
20.2799995578825 5.94062709497771
20.2999995574355 5.98917991838518
20.3199995569885 6.04316825730665
20.3399995565414 6.01888281631498
20.3599995560944 6.06973569131156
20.3799995556474 6.08549526393118
20.3999995552003 6.17863864265903
20.4199995547533 6.15825749123721
20.4399995543063 6.12215217275778
20.4599995538592 6.06357631973082
20.4799995534122 6.05754806180093
20.4999995529652 6.08193592647869
20.5199995525181 6.16141243775021
20.5399995520711 6.23825969775968
20.5599995516241 6.28814279090814
20.579999551177 6.29339894741446
20.59999955073 6.31602741775548
20.619999550283 6.31659535802285
20.6399995498359 6.38419579000237
20.6599995493889 6.4668584559448
20.6799995489419 6.63376432868466
20.6999995484948 6.97208838582793
20.7199995480478 7.55907742690993
20.7399995476007 8.36801593730526
20.7599995471537 9.14959976083466
20.7799995467067 9.94406516451332
20.7999995462596 10.5614278776891
20.8199995458126 11.0981092059141
20.8399995453656 11.5675099883612
20.8599995449185 11.8751075865318
20.8799995444715 11.8434543500377
20.8999995440245 11.5472359923698
20.9199995435774 11.1149314453052
20.9399995431304 10.5077079573092
20.9599995426834 9.82577752738002
20.9799995422363 9.24743883634866
20.9999995417893 8.71509605979307
21.0199995413423 8.10959431718696
21.0399995408952 7.57701069659135
21.0599995404482 7.21533759030828
21.0799995400012 6.97366562301722
21.0999995395541 6.76057489842783
21.1199995391071 6.63693308566419
21.13999953866 6.55874515279086
21.159999538213 6.51547170570648
21.179999537766 6.47693119318783
21.1999995373189 6.42103677738356
21.2199995368719 6.40694366265487
21.2399995364249 6.44563409402147
21.2599995359778 6.4841306621168
21.2799995355308 6.48199104634014
21.2999995350838 6.45139290862152
21.3199995346367 6.46435253333438
21.3399995341897 6.47855874080932
21.3599995337427 6.4801092620685
21.3799995332956 6.47421466773906
21.3999995328486 6.44505267499996
21.4199995324016 6.44695572838955
21.4399995319545 6.52080561296378
21.4599995315075 6.53350250554172
21.4799995310605 6.47654333721828
21.4999995306134 6.47778487772916
21.5199995301664 6.54480250793522
21.5399995297194 6.5664173181363
21.5599995292723 6.52855102115147
21.5799995288253 6.45270378180019
21.5999995283782 6.48631792297921
21.6199995279312 6.50781974801862
21.6399995274842 6.52814383992825
21.6599995270371 6.52946834003144
21.6799995265901 6.52486030526938
21.6999995261431 6.51749338267668
21.719999525696 6.51593090940292
21.739999525249 6.60678908450636
21.759999524802 6.63992158668941
21.7799995243549 6.60023775490767
21.7999995239079 6.59682191613023
21.8199995234609 6.6173705411617
21.8399995230138 6.6620452894159
21.8599995225668 6.65144560818154
21.8799995221198 6.6603319285474
21.8999995216727 6.64305188421161
21.9199995212257 6.64740164973574
21.9399995207787 6.59779593870752
21.9599995203316 6.61578096975233
21.9799995198846 6.66950976602782
21.9999995194376 6.74427992305949
22.0199995189905 6.7576821531758
22.0399995185435 6.70321631604252
22.0599995180964 6.65093496548122
22.0799995176494 6.67301123256944
22.0999995172024 6.7641338295076
22.1199995167553 6.79583321352599
22.1399995163083 6.72533529714686
22.1599995158613 6.68771426556148
22.1799995154142 6.76568962488766
22.1999995149672 6.76271954627116
22.2199995145202 6.72689799665396
22.2399995140731 6.65933871009373
22.2599995136261 6.65231406072823
22.2799995131791 6.68846178410204
22.299999512732 6.74919540467786
22.319999512285 6.78491227954619
22.339999511838 6.73022363879472
22.3599995113909 6.75329439423623
22.3799995109439 6.77221015716813
22.3999995104969 6.79051033140332
22.4199995100498 6.79639398725946
22.4399995096028 6.82322626876448
22.4599995091558 6.84758683845303
22.4799995087087 6.8534225090991
22.4999995082617 6.91079764163402
22.5199995078146 7.03708960791513
22.5399995073676 7.14083291996566
22.5599995069206 7.18114679623726
22.5799995064735 7.13015700686454
22.5999995060265 7.07787895867617
22.6199995055795 7.14321176946372
22.6399995051324 7.14825478525594
22.6599995046854 7.09953053142934
22.6799995042384 7.02546673487627
22.6999995037913 7.03557179827507
22.7199995033443 7.03698537874812
22.7399995028973 7.05696042142833
22.7599995024502 7.09913217565615
22.7799995020032 7.16166600495179
22.7999995015562 7.10684356658775
22.8199995011091 6.96377372592526
22.8399995006621 6.91086068972006
22.8599995002151 6.98005877276412
22.879999499768 7.07384386298514
22.899999499321 7.06757923008078
22.9199994988739 7.0389959220176
22.9399994984269 7.03502899514034
22.9599994979799 6.99419062039132
22.9799994975328 6.9021452700091
22.9999994970858 6.86838058595239
23.0199994966388 6.85809530792417
23.0399994961917 6.85514867696126
23.0599994957447 6.86886156625246
23.0799994952977 7.00219933638418
23.0999994948506 7.04921868541729
23.1199994944036 7.06802045637828
23.1399994939566 7.10998463810656
23.1599994935095 7.14731987925666
23.1799994930625 7.12626630270553
23.1999994926155 7.05072943955238
23.2199994921684 7.0295036863728
23.2399994917214 7.07284947454
23.2599994912744 7.14968639134401
23.2799994908273 7.18945958837414
23.2999994903803 7.255819368514
23.3199994899333 7.24233561911665
23.3399994894862 7.17905769042512
23.3599994890392 7.08757166147802
23.3799994885921 7.10280424005314
23.3999994881451 7.12881722401163
23.4199994876981 7.12023244316011
23.439999487251 7.07988366240677
23.459999486804 7.14827913306727
23.479999486357 7.23581393360554
23.4999994859099 7.26012336654805
23.5199994854629 7.20947807481209
23.5399994850159 7.20571676710979
23.5599994845688 7.22018110151175
23.5799994841218 7.22843557631934
23.5999994836748 7.21321749115219
23.6199994832277 7.24124983422608
23.6399994827807 7.24282399090931
23.6599994823337 7.19768584880733
23.6799994818866 7.12043370281153
23.6999994814396 7.14385705347501
23.7199994809926 7.19854965568562
23.7399994805455 7.22694926022124
23.7599994800985 7.23288642062089
23.7799994796515 7.25198348006393
23.7999994792044 7.16207115546381
23.8199994787574 7.06969307596539
23.8399994783103 7.09695922811635
23.8599994778633 7.20104025969367
23.8799994774163 7.25554857577595
23.8999994769692 7.20020257969362
23.9199994765222 7.17824301956801
23.9399994760752 7.14416928343476
23.9599994756281 7.21095560075554
23.9799994751811 7.26487991939183
23.9999994747341 7.27330601756181
24.019999474287 7.1991826723007
24.03999947384 7.0706243475208
24.059999473393 7.04999308488164
24.0799994729459 7.14547461394357
24.0999994724989 7.20530724084191
24.1199994720519 7.13437561521567
24.1399994716048 7.0466899517241
24.1599994711578 7.04286388279933
24.1799994707108 7.1384018974065
24.1999994702637 7.18215605757678
24.2199994698167 7.20299606759701
24.2399994693697 7.22690028293973
24.2599994689226 7.24956945492671
24.2799994684756 7.22300797619579
24.2999994680285 7.17324087323314
24.3199994675815 7.23157876732274
24.3399994671345 7.26521984721708
24.3599994666874 7.28033641882044
24.3799994662404 7.24674546590608
24.3999994657934 7.23663236237154
24.4199994653463 7.21644480382298
24.4399994648993 7.19921129251052
24.4599994644523 7.21222850528112
24.4799994640052 7.19553688000619
24.4999994635582 7.21908504091857
24.5199994631112 7.23974167346049
24.5399994626641 7.22301085022573
24.5599994622171 7.16785204195922
24.5799994617701 7.13249550249938
24.599999461323 7.15948088031998
24.619999460876 7.21708262674835
24.639999460429 7.26138586227509
24.6599994599819 7.21708762429102
24.6799994595349 7.18659830990187
24.6999994590878 7.24152419341697
24.7199994586408 7.29655571038778
24.7399994581938 7.29525185157805
24.7599994577467 7.26116242486576
24.7799994572997 7.26917216978012
24.7999994568527 7.23903952494662
24.8199994564056 7.16686836118057
24.8399994559586 7.15367012833147
24.8599994555116 7.22590161975101
24.8799994550645 7.33659020352161
24.8999994546175 7.29687514445529
24.9199994541705 7.19971769124615
24.9399994537234 7.12935963922084
24.9599994532764 7.15258707984696
24.9799994528294 7.20668414010371
24.9999994523823 7.23059225844107
25.0199994519353 7.27362379404915
25.0399994514883 7.28977484867756
25.0599994510412 7.27122072814106
25.0799994505942 7.18930493493286
25.0999994501472 7.14202816437914
25.1199994497001 7.15353781672579
25.1399994492531 7.21805156400423
25.159999448806 7.23799415209283
25.179999448359 7.32756862273047
25.199999447912 7.40139908788652
25.2199994474649 7.51934154135216
25.2399994470179 7.61431760759427
25.2599994465709 7.79107425933567
25.2799994461238 8.16984178275835
25.2999994456768 8.59740662949403
25.3199994452298 8.91757222070082
25.3399994447827 9.2830652197161
25.3599994443357 9.4514918979973
25.3799994438887 9.53670261556119
25.3999994434416 9.43211966895123
25.4199994429946 9.31978647186625
25.4399994425476 9.04753793836094
25.4599994421005 8.60089553724089
25.4799994416535 8.24613605244291
25.4999994412065 7.98111397016243
25.5199994407594 7.75770664175732
25.5399994403124 7.52966286842164
25.5599994398654 7.36121402197305
25.5799994394183 7.31855386537774
25.5999994389713 7.42289822598514
25.6199994385242 7.51628526794719
25.6399994380772 7.53585759622723
25.6599994376302 7.433856349018
25.6799994371831 7.41827026042987
25.6999994367361 7.28026734967027
25.7199994362891 7.28571855648012
25.739999435842 7.28179261750225
25.759999435395 7.32769596420083
25.779999434948 7.36318020641099
25.7999994345009 7.3501079548341
25.8199994340539 7.29460536215935
25.8399994336069 7.21608144188405
25.8599994331598 7.1882530575104
25.8799994327128 7.21312083991724
25.8999994322658 7.28484065020396
25.9199994318187 7.28146908164717
25.9399994313717 7.28190800345074
25.9599994309247 7.21643060106494
25.9799994304776 7.17804369979856
25.9999994300306 7.17582683145151
26.0199994295836 7.26012379053326
26.0399994291365 7.3909227869192
26.0599994286895 7.34354704266634
26.0799994282424 7.22776598965659
26.0999994277954 7.15083498828857
26.1199994273484 7.16874930721401
26.1399994269013 7.18917764439672
26.1599994264543 7.22380855320674
26.1799994260073 7.28311188229616
26.1999994255602 7.24562848072446
26.2199994251132 7.27084174998522
26.2399994246662 7.2415250507285
26.2599994242191 7.24350562268942
26.2799994237721 7.26981361456949
26.2999994233251 7.322969257133
26.319999422878 7.31814535826377
26.339999422431 7.2715239447132
26.359999421984 7.28664357383762
26.3799994215369 7.37201923859705
26.3999994210899 7.39899542150955
26.4199994206429 7.43868467274186
26.4399994201958 7.45639331324724
26.4599994197488 7.40790715698783
26.4799994193017 7.31178352883735
26.4999994188547 7.19202025538627
26.5199994184077 7.16210258816245
26.5399994179606 7.15769820428548
26.5599994175136 7.19383479009996
26.5799994170666 7.23495812161573
26.5999994166195 7.29040322248242
26.6199994161725 7.32545769489119
26.6399994157255 7.31298476368092
26.6599994152784 7.28531885194578
26.6799994148314 7.2827523122723
26.6999994143844 7.23554691658687
26.7199994139373 7.15543762827569
26.7399994134903 7.04845055625065
26.7599994130433 6.96800686919817
26.7799994125962 6.95594303127207
26.7999994121492 7.05726674418635
26.8199994117022 7.19359330719285
26.8399994112551 7.21878023755525
26.8599994108081 7.15085768462132
26.8799994103611 7.14818533954989
26.899999409914 7.2273962079537
26.919999409467 7.27656566300738
26.9399994090199 7.19516233331762
26.9599994085729 7.11854649421686
26.9799994081259 7.15928266883567
26.9999994076788 7.2440598440516
27.0199994072318 7.25124587172058
27.0399994067848 7.16013347010895
27.0599994063377 7.16620383450967
27.0799994058907 7.16688054931654
27.0999994054437 7.25984022815792
27.1199994049966 7.36140234534566
27.1399994045496 7.452169243485
27.1599994041026 7.37356732363965
27.1799994036555 7.21879486502779
27.1999994032085 7.1566836541234
27.2199994027615 7.20652528707865
27.2399994023144 7.25911875277776
27.2599994018674 7.25606818112352
27.2799994014204 7.29053492016422
27.2999994009733 7.36783553294292
27.3199994005263 7.37512486163557
27.3399994000793 7.39895625681003
27.3599993996322 7.32317055239253
27.3799993991852 7.28578372959218
27.3999993987381 7.2369110624322
27.4199993982911 7.26189425302958
27.4399993978441 7.34201409780326
27.459999397397 7.37180680745338
27.47999939695 7.37251487835618
27.499999396503 7.3033900337357
27.5199993960559 7.28614020266506
27.5399993956089 7.23792892327103
27.5599993951619 7.27771565788189
27.5799993947148 7.33967685848911
27.5999993942678 7.40156473205818
27.6199993938208 7.41572968175354
27.6399993933737 7.34385287732327
27.6599993929267 7.26607239758059
27.6799993924797 7.17408819462539
27.6999993920326 7.20418680971533
27.7199993915856 7.2792078549947
27.7399993911386 7.32628031197095
27.7599993906915 7.27211910198072
27.7799993902445 7.25647585658751
27.7999993897974 7.19155577164612
27.8199993893504 7.16308041863064
27.8399993889034 7.11005342952115
27.8599993884563 7.1379544657006
27.8799993880093 7.19346092256968
27.8999993875623 7.27195812628923
27.9199993871152 7.24578858145833
27.9399993866682 7.26442132214855
27.9599993862212 7.26434028647314
27.9799993857741 7.34419600342963
27.9999993853271 7.33063292921801
28.0199993848801 7.38637754628346
28.039999384433 7.3652042182991
28.059999383986 7.35064390125958
28.079999383539 7.33363037467021
28.0999993830919 7.31997839467758
28.1199993826449 7.31258107528336
28.1399993821979 7.30600335232574
28.1599993817508 7.3049071371272
28.1799993813038 7.30186587403579
28.1999993808568 7.30512717468676
28.2199993804097 7.27388261044054
28.2399993799627 7.26526631214438
28.2599993795156 7.24334622526163
28.2799993790686 7.25834921976326
28.2999993786216 7.24943279856219
28.3199993781745 7.28133896030743
28.3399993777275 7.26494058261833
28.3599993772805 7.30897954028455
28.3799993768334 7.39501371242515
28.3999993763864 7.35177603458133
28.4199993759394 7.2883990079789
28.4399993754923 7.28895407953135
28.4599993750453 7.41442388262729
28.4799993745983 7.4550127839475
28.4999993741512 7.43541437870112
28.5199993737042 7.33187076616803
28.5399993732572 7.29279341504173
28.5599993728101 7.30069517814663
28.5799993723631 7.33994141321872
28.5999993719161 7.32383883514572
28.619999371469 7.29742051993976
28.639999371022 7.24267822974154
28.659999370575 7.27147034375047
28.6799993701279 7.28398951773491
28.6999993696809 7.28708665074911
28.7199993692338 7.35428979788261
28.7399993687868 7.40295438151643
28.7599993683398 7.42602643312925
28.7799993678927 7.43608355128241
28.7999993674457 7.47403815204557
28.8199993669987 7.53507292309685
28.8399993665516 7.60585388340142
28.8599993661046 7.66934171894367
28.8799993656576 7.67769936569708
28.8999993652105 7.58852489939032
28.9199993647635 7.59232672383032
28.9399993643165 7.67083464165844
28.9599993638694 7.73234195855989
28.9799993634224 7.86851963127583
28.9999993629754 7.96018528834421
29.0199993625283 8.0705377879638
29.0399993620813 8.22537509232762
29.0599993616343 8.39620964294483
29.0799993611872 8.54850935027506
29.0999993607402 8.94012092073234
29.1199993602932 9.24240965369323
29.1399993598461 9.45122094319215
29.1599993593991 9.91152495617255
29.179999358952 10.563088880556
29.199999358505 11.1132232063143
29.219999358058 13.5484090863165
29.2399993576109 17.1521188628857
29.2599993571639 19.8977057097494
29.2799993567169 25.4263423162995
29.2999993562698 31.5112364001516
29.3199993558228 33.8063014358518
29.3399993553758 36.2857387513393
29.3599993549287 38.3204662522508
29.3799993544817 38.3681934150237
29.3999993540347 36.3139110596401
29.4199993535876 32.6061322759846
29.4399993531406 30.3727937644651
29.4599993526936 26.4539281558506
29.4799993522465 21.1077691052739
29.4999993517995 18.8605747673246
29.5199993513525 16.3640265171639
29.5399993509054 13.196280196779
29.5599993504584 12.0366455902672
29.5799993500113 10.9837815939326
29.5999993495643 9.66767844157121
29.6199993491173 9.14558659427325
29.6399993486702 8.69242722059132
29.6599993482232 8.12067419046736
29.6799993477762 7.94719701763099
29.6999993473291 7.82585365242951
29.7199993468821 7.59244487959838
29.7399993464351 7.5451265444884
29.759999345988 7.51929051821603
29.779999345541 7.47685096546848
29.799999345094 7.40163837988272
29.8199993446469 7.29653900731004
29.8399993441999 7.29481755267006
29.8599993437529 7.36015212559006
29.8799993433058 7.42287440399653
29.8999993428588 7.30382793972227
29.9199993424118 7.20428407227108
29.9399993419647 7.21656016111201
29.9599993415177 7.31135223666151
29.9799993410707 7.33069569567781
29.9999993406236 7.36248026126523
30.0199993401766 7.3571799899148
30.0399993397295 7.34115154926756
30.0599993392825 7.32521859169552
30.0799993388355 7.20053176034027
30.0999993383884 7.09459546909226
30.1199993379414 7.09123626768132
30.1399993374944 7.21814912747618
30.1599993370473 7.2301037189091
30.1799993366003 7.19425433910894
30.1999993361533 7.15560510218606
30.2199993357062 7.18119508597201
30.2399993352592 7.11404848101466
30.2599993348122 7.09036164223975
30.2799993343651 7.06355441404882
30.2999993339181 7.13659386918623
30.3199993334711 7.07931825352962
30.339999333024 7.08915939332554
30.359999332577 7.07736211406586
30.37999933213 7.1636363655712
30.3999993316829 7.20231601430762
30.4199993312359 7.26763819682884
30.4399993307889 7.22932026289202
30.4599993303418 7.1534691639579
30.4799993298948 7.03737795756264
30.4999993294477 7.01475107874678
30.5199993290007 7.06446552348324
30.5399993285537 7.08206934780742
30.5599993281066 7.08500902265509
30.5799993276596 7.02249128092381
30.5999993272126 6.94651239360127
30.6199993267655 6.90597763569024
30.6399993263185 6.98027205627693
30.6599993258715 7.05079069455012
30.6799993254244 7.04660868816422
30.6999993249774 6.97684306834707
30.7199993245304 6.94391249323445
30.7399993240833 6.90369173223099
30.7599993236363 6.87638866258179
30.7799993231893 6.84246096439247
30.7999993227422 6.95253662026732
30.8199993222952 7.01791291924592
30.8399993218482 7.04558231212377
30.8599993214011 6.98447694458874
30.8799993209541 6.92696076253957
30.8999993205071 6.86825410452746
30.91999932006 6.8413496733841
30.939999319613 6.8716056288931
30.9599993191659 6.92574774986262
30.9799993187189 6.87679941102826
30.9999993182719 6.8311055129298
31.0199993178248 6.81654633126576
31.0399993173778 6.87598075692925
31.0599993169308 6.85991332201773
31.0799993164837 6.86936586992277
31.0999993160367 6.86669376942929
31.1199993155897 6.83453441418003
31.1399993151426 6.73309411270136
31.1599993146956 6.68753332480269
31.1799993142486 6.75397023745321
31.1999993138015 6.78601298445003
31.2199993133545 6.81048858916838
31.2399993129075 6.71123499606844
31.2599993124604 6.72059425917269
31.2799993120134 6.78030404763649
31.2999993115664 6.86543070972667
31.3199993111193 6.8635283913956
31.3399993106723 6.87482227533463
31.3599993102252 6.93836339237504
31.3799993097782 6.98430152604785
31.3999993093312 6.9210782229321
31.4199993088841 6.8454641706184
31.4399993084371 6.7442012984332
31.4599993079901 6.78671595174208
31.479999307543 6.86190649045181
31.499999307096 6.96316912580514
31.519999306649 6.8628758635534
31.5399993062019 6.77965295798244
31.5599993057549 6.74588222222246
31.5799993053079 6.76807611119682
31.5999993048608 6.73166711594629
31.6199993044138 6.76344020054405
31.6399993039668 6.85525523851479
31.6599993035197 6.91222397676924
31.6799993030727 6.87764432896918
31.6999993026257 6.81262361803134
31.7199993021786 6.75881838145196
31.7399993017316 6.7321090891902
31.7599993012846 6.66335839733625
31.7799993008375 6.72459397619078
31.7999993003905 6.81824528076746
31.8199992999434 6.90131917750999
31.8399992994964 6.85745211733487
31.8599992990494 6.73536963574926
31.8799992986023 6.70302187299243
31.8999992981553 6.78605430104604
31.9199992977083 6.81089764354519
31.9399992972612 6.75016066508317
31.9599992968142 6.66568497632327
31.9799992963672 6.72091662513363
31.9999992959201 6.74160813343119
32.0199992954731 6.77491605683554
32.0399992950261 6.68881881118528
32.059999294579 6.68975366174687
32.079999294132 6.66803852200264
32.099999293685 6.76993951876374
32.1199992932379 6.82543610531074
32.1399992927909 6.8222646568292
32.1599992923439 6.77445955016336
32.1799992918968 6.66809389114679
32.1999992914498 6.69454908068014
32.2199992910028 6.7622761108287
32.2399992905557 6.80072935801056
32.2599992901087 6.73858937190425
32.2799992896616 6.65715704231335
32.2999992892146 6.66448886608278
32.3199992887676 6.68544510909745
32.3399992883205 6.71648364349864
32.3599992878735 6.66469558085718
32.3799992874265 6.65174083293866
32.3999992869794 6.63093224915105
32.4199992865324 6.69458629631527
32.4399992860854 6.75757105768109
32.4599992856383 6.76950967688175
32.4799992851913 6.82851426981114
32.4999992847443 6.81170404215058
32.5199992842972 6.78655328892794
32.5399992838502 6.65757138799618
32.5599992834032 6.66048189752287
32.5799992829561 6.68387968803934
32.5999992825091 6.74851048025895
32.6199992820621 6.85859885808915
32.639999281615 7.0070856737559
32.659999281168 7.07812161872311
32.6799992807209 7.13133979527164
32.6999992802739 7.25175426281463
32.7199992798269 7.48966111184312
32.7399992793798 7.82133347667265
32.7599992789328 8.31078237244486
32.7799992784858 8.98722435660941
32.7999992780387 10.0251059486126
32.8199992775917 10.911773300509
32.8399992771447 11.6119535444
32.8599992766976 12.1268009438872
32.8799992762506 12.5306159246434
32.8999992758036 12.7207817915395
32.9199992753565 12.6931169979212
32.9399992749095 12.3719159802689
32.9599992744625 11.9201045363212
32.9799992740154 11.2964587852864
32.9999992735684 10.6610609440965
33.0199992731214 9.98970647767756
33.0399992726743 9.19985588907148
33.0599992722273 8.55413113362888
33.0799992717803 8.08588533303157
33.0999992713332 7.63630898339075
33.1199992708862 7.28885390459886
33.1399992704391 7.07594246610276
33.1599992699921 6.88361347226524
33.1799992695451 6.80641152516126
33.199999269098 6.72270833969253
33.219999268651 6.7132428646088
33.239999268204 6.66928548152107
33.2599992677569 6.57091971219299
33.2799992673099 6.40465613485392
33.2999992668629 6.32298410757026
33.3199992664158 6.33689316385602
33.3399992659688 6.41539124850307
33.3599992655218 6.4296605310628
33.3799992650747 6.39723175509822
33.3999992646277 6.39003477558937
33.4199992641807 6.38135657517062
33.4399992637336 6.40817573143486
33.4599992632866 6.43310190484862
33.4799992628396 6.49990220271959
33.4999992623925 6.53266369649233
33.5199992619455 6.60193554987748
33.5399992614985 6.62319806659142
33.5599992610514 6.65060924493087
33.5799992606044 6.52015849163106
33.5999992601573 6.41415413415926
33.6199992597103 6.36044156853129
33.6399992592633 6.42657776193387
33.6599992588162 6.48931259862382
33.6799992583692 6.51720283787253
33.6999992579222 6.50129301404577
33.7199992574751 6.48884571588405
33.7399992570281 6.50791418513432
33.7599992565811 6.45374675891773
33.779999256134 6.32511404766876
33.799999255687 6.22608529188998
33.81999925524 6.18083088355562
33.8399992547929 6.28357866986709
33.8599992543459 6.38185452215129
33.8799992538989 6.4544683483325
33.8999992534518 6.40555719850839
33.9199992530048 6.29052684650519
33.9399992525578 6.27602938466345
33.9599992521107 6.30239840211499
33.9799992516637 6.31134804570469
33.9999992512167 6.27467494876988
34.0199992507696 6.26465834458858
34.0399992503226 6.34277946575596
34.0599992498755 6.40183061374515
34.0799992494285 6.40713430749575
34.0999992489815 6.40819359775481
34.1199992485344 6.28521817974979
34.1399992480874 6.1719184781605
34.1599992476404 6.13807093891835
34.1799992471933 6.23073784741768
34.1999992467463 6.15669308251207
34.2199992462993 6.11706219946319
34.2399992458522 6.0761847105428
34.2599992454052 6.15841999804722
34.2799992449582 6.15030953532513
34.2999992445111 6.15840902676433
34.3199992440641 6.23754178319965
34.3399992436171 6.35350646978186
34.35999924317 6.32957434423807
34.379999242723 6.24783169295749
34.399999242276 6.12777638534486
34.4199992418289 6.19265346136244
34.4399992413819 6.21297924560887
34.4599992409348 6.27286108942901
34.4799992404878 6.21125749267978
34.4999992400408 6.14258396937618
34.5199992395937 6.08699981121455
34.5399992391467 6.19039984565513
34.5599992386997 6.21349862175377
34.5799992382526 6.1964484459264
34.5999992378056 6.15841640085444
34.6199992373586 6.20151557954439
34.6399992369115 6.19158018769072
34.6599992364645 6.11050789893676
34.6799992360175 5.99931118717199
34.6999992355704 6.00595311940199
34.7199992351234 6.11251945397544
34.7399992346764 6.22990182185374
34.7599992342293 6.17304277083142
34.7799992337823 6.12032766813762
34.7999992333353 6.06426116945829
34.8199992328882 6.009374214796
34.8399992324412 5.97007598757539
34.8599992319942 5.93375606285154
34.8799992315471 6.00377694181009
34.8999992311001 6.04470120310789
34.919999230653 6.05369903725461
34.939999230206 6.00681973847494
34.959999229759 6.01988740248654
34.9799992293119 6.0465701507918
34.9999992288649 6.07905297553276
35.0199992284179 6.12509429673868
35.0399992279708 6.10275883752457
35.0599992275238 6.08710908685728
35.0799992270768 6.02176726187538
35.0999992266297 6.05422466845546
35.1199992261827 6.08366291438278
35.1399992257357 6.0253458121953
35.1599992252886 5.93097718354756
35.1799992248416 5.8499987432627
35.1999992243946 5.90090570496153
35.2199992239475 5.95749122227989
35.2399992235005 6.00113524258266
35.2599992230535 6.04545779692138
35.2799992226064 6.05009614635728
35.2999992221594 6.00549591667699
35.3199992217124 5.93675091008838
35.3399992212653 5.94418522460735
35.3599992208183 5.9475400613481
35.3799992203712 5.8742724707281
35.3999992199242 5.90623573914926
35.4199992194772 5.99163152021359
35.4399992190301 6.01475983123692
35.4599992185831 5.88335056422607
35.4799992181361 5.82215427462536
35.499999217689 5.84266133339258
35.519999217242 5.91562440039207
35.539999216795 5.95259455729783
35.5599992163479 5.9012428467504
35.5799992159009 5.9019486337165
35.5999992154539 5.98271209425632
35.6199992150068 6.10319731873455
35.6399992145598 6.08736028922426
35.6599992141128 6.00465729085781
35.6799992136657 5.89705193926497
35.6999992132187 5.89973550286627
35.7199992127717 5.89220336517548
35.7399992123246 5.89861645015236
35.7599992118776 5.87451358097188
35.7799992114306 5.8887246732831
35.7999992109835 5.94761926092215
35.8199992105365 6.0134733731756
35.8399992100894 5.99785680542123
35.8599992096424 6.08623984065557
35.8799992091954 6.28488900745599
35.8999992087483 6.58145894145883
35.9199992083013 7.11464903663401
35.9399992078543 7.52169448839059
35.9599992074072 7.8643918922445
35.9799992069602 7.95068729480052
35.9999992065132 7.92727425475438
36.0199992060661 7.92388129082303
36.0399992056191 7.86854683643988
36.0599992051721 7.65616492646168
36.079999204725 7.2741042440382
36.099999204278 7.00333985880033
36.119999203831 6.8337048692392
36.1399992033839 6.61951440776768
36.1599992029369 6.31216929254759
36.1799992024899 6.1180717413834
36.1999992020428 6.00052481357245
36.2199992015958 5.88744924564068
36.2399992011487 5.83531817733392
36.2599992007017 5.86645653729626
36.2799992002547 5.83928990525645
36.2999991998076 5.80424449265574
36.3199991993606 5.71417221080429
36.3399991989136 5.68461948166798
36.3599991984665 5.67542256201577
36.3799991980195 5.67241698601655
36.3999991975725 5.70540266673663
36.4199991971254 5.65341943961156
36.4399991966784 5.62422687423718
36.4599991962314 5.60839317996106
36.4799991957843 5.73821867225906
36.4999991953373 5.78408213706137
36.5199991948903 5.77460735034932
36.5399991944432 5.70614083849359
36.5599991939962 5.644820025771
36.5799991935492 5.55561787110804
36.5999991931021 5.49638718258578
36.6199991926551 5.41313984694256
36.6399991922081 5.44116827055902
36.659999191761 5.46592032187493
36.679999191314 5.5948287510845
36.6999991908669 5.58248179863178
36.7199991904199 5.62524865433432
36.7399991899729 5.60302346176249
36.7599991895258 5.59102427392495
36.7799991890788 5.54755601501313
36.7999991886318 5.47832045775299
36.8199991881847 5.46323488215807
36.8399991877377 5.50040098430293
36.8599991872907 5.54840451190966
36.8799991868436 5.56054284708398
36.8999991863966 5.47679479762536
36.9199991859496 5.49179983634845
36.9399991855025 5.44428184344559
36.9599991850555 5.43490432762697
36.9799991846085 5.44175434774924
36.9999991841614 5.54030364811575
37.0199991837144 5.55483695366368
37.0399991832674 5.58681871070038
37.0599991828203 5.53026781367762
37.0799991823733 5.48329590914672
37.0999991819263 5.37154519839879
37.1199991814792 5.38516562332487
37.1399991810322 5.44246896836668
37.1599991805851 5.50508138892081
37.1799991801381 5.44267512507178
37.1999991796911 5.43224613946386
37.219999179244 5.37756561420831
37.239999178797 5.36808564018247
37.25999917835 5.32721379671291
37.2799991779029 5.30220024110248
37.2999991774559 5.29879439279741
37.3199991770089 5.30374096282287
37.3399991765618 5.33841840792683
37.3599991761148 5.34915844033503
37.3799991756678 5.4054477316363
37.3999991752207 5.4090319058083
37.4199991747737 5.45393812244952
37.4399991743267 5.45416193178318
37.4599991738796 5.45476234734924
37.4799991734326 5.50858697260366
37.4999991729856 5.49089055413278
37.5199991725385 5.4910137907122
37.5399991720915 5.42242712672963
37.5599991716444 5.44148737447972
37.5799991711974 5.43570333694319
37.5999991707504 5.36401433261132
37.6199991703033 5.29175642394838
37.6399991698563 5.30669043270826
37.6599991694093 5.38920742129506
37.6799991689622 5.48712301302785
37.6999991685152 5.53327275688547
37.7199991680682 5.50239236876054
37.7399991676211 5.39503134320178
37.7599991671741 5.34662188773223
37.7799991667271 5.3129809752477
37.79999916628 5.34818440502165
37.819999165833 5.2773298967716
37.839999165386 5.28888351325181
37.8599991649389 5.24365836499189
37.8799991644919 5.2644535035403
37.8999991640449 5.26961152376774
37.9199991635978 5.33789163361683
37.9399991631508 5.3052546208775
37.9599991627038 5.28357550259342
37.9799991622567 5.27436788926327
37.9999991618097 5.31908524600294
38.0199991613626 5.29832754366696
38.0399991609156 5.31706670236862
38.0599991604686 5.26085658970186
38.0799991600215 5.25601588962768
38.0999991595745 5.28753654531228
38.1199991591275 5.36873263865321
38.1399991586804 5.36264316300292
38.1599991582334 5.25593869968983
38.1799991577864 5.18378338324724
38.1999991573393 5.19945103132097
38.2199991568923 5.21011007945055
38.2399991564453 5.19961669909555
38.2599991559982 5.18806367594863
38.2799991555512 5.16785097811909
38.2999991551042 5.24481768387039
38.3199991546571 5.23797357142954
38.3399991542101 5.29547996593367
38.3599991537631 5.28569300002512
38.379999153316 5.25913423330619
38.399999152869 5.13870392779558
38.419999152422 5.05863605043733
38.4399991519749 5.11269062788329
38.4599991515279 5.1587620377242
38.4799991510808 5.18724033205553
38.4999991506338 5.20236088859533
38.5199991501868 5.26342342004435
38.5399991497397 5.32895798515346
38.5599991492927 5.28689758369029
38.5799991488457 5.28778547279663
38.5999991483986 5.27596205547266
38.6199991479516 5.29124417280805
38.6399991475046 5.24434208505804
38.6599991470575 5.20400056764206
38.6799991466105 5.21104193762758
38.6999991461635 5.22495428694317
38.7199991457164 5.22953345397535
38.7399991452694 5.19322928374074
38.7599991448224 5.17230554560489
38.7799991443753 5.16203650346334
38.7999991439283 5.15797181269105
38.8199991434813 5.13068362594015
38.8399991430342 5.07155396131124
38.8599991425872 5.11656526001162
38.8799991421402 5.14869009978103
38.8999991416931 5.1543960350345
38.9199991412461 5.05576512318123
38.939999140799 5.02488255895928
38.959999140352 5.08598910654545
38.979999139905 5.21603356488035
38.9999991394579 5.24675811967481
39.0199991390109 5.18586272184387
39.0399991385639 5.13910316033222
39.0599991381168 5.12116422927414
39.0799991376698 5.16287440179814
39.0999991372228 5.17357821709408
39.1199991367757 5.17128052912652
39.1399991363287 5.17635386163451
39.1599991358817 5.16310954389676
39.1799991354346 5.21073650327041
39.1999991349876 5.20313160075935
39.2199991345406 5.18392650471588
39.2399991340935 5.08896700550283
39.2599991336465 5.00151886174055
39.2799991331995 5.03724236625597
39.2999991327524 5.17890367797417
39.3199991323054 5.19802043589558
39.3399991318583 5.13029300844018
39.3599991314113 5.03211848729643
39.3799991309643 5.06333053178518
39.3999991305172 5.09965462207647
39.4199991300702 5.07029805042732
39.4399991296232 5.00846486206714
39.4599991291761 4.96849147147541
39.4799991287291 4.95448552260033
39.4999991282821 4.90421225125816
39.519999127835 4.9545948206155
39.539999127388 4.99795916815375
39.559999126941 5.07622289340177
39.5799991264939 5.01563823764328
39.5999991260469 5.02419382275854
39.6199991255999 5.00302999734783
39.6399991251528 4.99909122739759
39.6599991247058 5.07295319735885
39.6799991242588 5.1136638511734
39.6999991238117 5.15255429512849
39.7199991233647 5.07418874873127
39.7399991229177 4.99549422124822
39.7599991224706 4.98127573830986
39.7799991220236 4.95020471537782
39.7999991215765 4.99556219692279
39.8199991211295 4.99357537869759
39.8399991206825 4.96040301769577
39.8599991202354 4.97576796531727
39.8799991197884 4.99818550546889
39.8999991193414 5.07936969220302
39.9199991188943 5.03146977477193
39.9399991184473 4.93793669830925
39.9599991180003 4.93346610828186
39.9799991175532 5.00898700929078
39.9999991171062 5.12436867913954
40.0199991166592 5.06985446746574
40.0399991162121 5.08052199753692
40.0599991157651 5.11959679316336
40.0799991153181 5.14628599464674
40.099999114871 5.04514109379551
40.119999114424 4.97163524440312
40.139999113977 5.00881226364038
40.1599991135299 5.09080823012061
40.1799991130829 5.0911089029017
40.1999991126359 5.10255977582021
40.2199991121888 5.08382400210698
40.2399991117418 5.06694625987488
40.2599991112947 5.08917220899463
40.2799991108477 5.09679673596709
40.2999991104007 5.05830389651686
40.3199991099536 4.95049385516324
40.3399991095066 4.92868168774428
40.3599991090596 4.93259345725975
40.3799991086125 5.02053849968695
40.3999991081655 5.04171031873476
40.4199991077185 5.06903458525786
40.4399991072714 5.04499368645427
40.4599991068244 5.04705762870745
40.4799991063774 5.07413400552983
40.4999991059303 5.0000552679159
40.5199991054833 4.90982766440124
40.5399991050363 4.84985145880889
40.5599991045892 4.90460038087721
40.5799991041422 4.99105266526028
40.5999991036952 5.09254083371659
40.6199991032481 5.07613140252909
40.6399991028011 4.976043842862
40.6599991023541 4.94158598164582
40.679999101907 5.012355981635
40.69999910146 5.1034992983336
40.7199991010129 5.06150583374427
40.7399991005659 5.02453519036279
40.7599991001189 4.95771579107065
40.7799990996718 4.96953811145394
40.7999990992248 4.97036242378796
40.8199990987778 4.98695690356101
40.8399990983307 4.94766361735199
40.8599990978837 4.92034172868245
40.8799990974367 4.92856778561897
40.8999990969896 4.92786815364516
40.9199990965426 5.03738156584949
40.9399990960956 5.15065374016177
40.9599990956485 5.24810889868471
40.9799990952015 5.16731833986634
40.9999990947545 5.05536115041689
41.0199990943074 4.94221627202503
41.0399990938604 4.94030631961347
41.0599990934134 4.96890087325662
41.0799990929663 5.00714092129053
41.0999990925193 5.00871552651847
41.1199990920722 4.98517627660408
41.1399990916252 5.00717336925122
41.1599990911782 5.06564723729301
41.1799990907311 5.09643270172406
41.1999990902841 5.07135561602355
41.2199990898371 4.9754565458858
41.23999908939 4.95062927390907
41.259999088943 4.98192978153258
41.279999088496 5.07099856995783
41.2999990880489 5.10710414161243
41.3199990876019 5.10657600110375
41.3399990871549 5.07614492305893
41.3599990867078 5.07560953733621
41.3799990862608 5.07353453167965
41.3999990858138 5.17030479956282
41.4199990853667 5.14452979223145
41.4399990849197 5.16840713944522
41.4599990844727 5.17341436589553
41.4799990840256 5.25651188395805
41.4999990835786 5.27364106385914
41.5199990831316 5.2553027092871
41.5399990826845 5.22810178623692
41.5599990822375 5.25601730323196
41.5799990817904 5.39933923770252
41.5999990813434 5.52476217060209
41.6199990808964 5.7812327090661
41.6399990804493 6.05698419057399
41.6599990800023 6.49387113698989
41.6799990795553 6.97761963362309
41.6999990791082 7.49499164934242
41.7199990786612 7.94200685192955
41.7399990782142 8.3795161757894
41.7599990777671 8.64799476461093
41.7799990773201 8.70347229930588
41.7999990768731 8.69001605455538
41.819999076426 8.54513150878382
41.839999075979 8.33955535958776
41.859999075532 7.98873976098558
41.8799990750849 7.55662131089887
41.8999990746379 7.22951377112396
41.9199990741909 6.87445130819405
41.9399990737438 6.53014527121945
41.9599990732968 6.19505600229634
41.9799990728498 6.00626689435572
41.9999990724027 5.88426708189208
42.0199990719557 5.75078497065627
42.0399990715086 5.53019787555559
42.0599990710616 5.38879314041018
42.0799990706146 5.30083883811359
42.0999990701675 5.20224842248286
42.1199990697205 5.08783774007938
42.1399990692735 5.08465332786944
42.1599990688264 5.10850384421017
42.1799990683794 5.16042426995799
42.1999990679324 5.17777609422018
42.2199990674853 5.27442775465007
42.2399990670383 5.25090958859833
42.2599990665913 5.14514187017738
42.2799990661442 5.08403617225799
42.2999990656972 5.09410204578249
42.3199990652502 5.09774768541093
42.3399990648031 5.15629783310185
42.3599990643561 5.09089716019865
42.3799990639091 5.15592603550982
42.399999063462 5.0943213687226
42.419999063015 5.1046436601792
42.4399990625679 5.0575198283124
42.4599990621209 5.04761305487675
42.4799990616739 5.0951762312217
42.4999990612268 5.13265697936135
42.5199990607798 5.14842792491581
42.5399990603328 5.07806895983219
42.5599990598857 5.0375531748751
42.5799990594387 5.00191191783358
42.5999990589917 4.9668771807452
42.6199990585446 4.91209181311214
42.6399990580976 4.92849270292363
42.6599990576506 4.9902135692882
42.6799990572035 5.03586920821591
42.6999990567565 5.00846716983218
42.7199990563095 4.99835729575414
42.7399990558624 4.90150400398329
42.7599990554154 4.83558806490855
42.7799990549684 4.85365352332989
42.7999990545213 4.96302859994338
42.8199990540743 5.05298160215678
42.8399990536273 5.06278821028775
42.8599990531802 5.06955874201569
42.8799990527332 5.01612745916946
42.8999990522861 4.92954906920461
42.9199990518391 4.90887669974406
42.9399990513921 4.90005004894437
42.959999050945 4.92234233751992
42.979999050498 5.00651754087938
42.999999050051 5.07949195882365
43.0199990496039 5.15731829647621
43.0399990491569 5.03832183261809
43.0599990487099 4.98710589426265
43.0799990482628 4.95534452215872
43.0999990478158 5.01388720188878
43.1199990473688 4.99492387313161
43.1399990469217 5.03676844265061
43.1599990464747 5.11012025725527
43.1799990460277 5.17043910782858
43.1999990455806 5.07678248793984
43.2199990451336 4.97014820349209
43.2399990446866 4.99012128225116
43.2599990442395 5.06349244268722
43.2799990437925 5.00506977069572
43.2999990433455 4.96663261287708
43.3199990428984 4.99297055632861
43.3399990424514 5.09599330903592
43.3599990420043 5.04919599233594
43.3799990415573 5.02263540767653
43.3999990411103 4.92876951229566
43.4199990406632 4.93991924718061
43.4399990402162 4.90547888541833
43.4599990397692 4.9515523053003
43.4799990393221 4.95725811484165
43.4999990388751 4.96246927920514
43.5199990384281 4.94319100780598
43.539999037981 4.90584918089962
43.559999037534 4.92838587216639
43.579999037087 4.97751811740399
43.5999990366399 5.10204084755382
43.6199990361929 5.13882464444927
43.6399990357459 5.11815971288879
43.6599990352988 5.00607497432011
43.6799990348518 4.95164152931077
43.6999990344048 4.91124865793017
43.7199990339577 4.91027482794684
43.7399990335107 4.8224700995837
43.7599990330637 4.82011830224782
43.7799990326166 4.84587883988095
43.7999990321696 4.94632577342693
43.8199990317225 5.01577257426529
43.8399990312755 5.0068607882656
43.8599990308285 4.93977946547361
43.8799990303814 4.89437851854156
43.8999990299344 4.95778742191756
43.9199990294874 5.01611628517624
43.9399990290403 5.01735632044177
43.9599990285933 4.9233844648442
43.9799990281463 4.86135969174489
43.9999990276992 4.87860904751464
44.0199990272522 4.90311654793415
44.0399990268052 4.98715697007859
44.0599990263581 5.01304594847253
44.0799990259111 5.07664711123434
44.0999990254641 5.09786448130338
44.119999025017 5.08029869887116
44.13999902457 5.10302460402539
44.159999024123 5.15267593441206
44.1799990236759 5.17538565037051
44.1999990232289 5.18548515321688
44.2199990227818 5.21890161324101
44.2399990223348 5.249476171487
44.2599990218878 5.3602814553584
44.2799990214407 5.6426185548715
44.2999990209937 6.03330411471462
44.3199990205467 6.38405624458616
44.3399990200996 6.7997016139924
44.3599990196526 7.02400018329355
44.3799990192056 7.18062326624852
44.3999990187585 7.37030632238757
44.4199990183115 7.50169341153279
44.4399990178645 7.54788923602783
44.4599990174174 7.57247439701222
44.4799990169704 7.50988545734191
44.4999990165234 7.29198082904372
44.5199990160763 7.04574010985488
44.5399990156293 6.80079375756327
44.5599990151823 6.60615091288746
44.5799990147352 6.22288807767866
44.5999990142882 5.89936488655795
44.6199990138412 5.6969857244526
44.6399990133941 5.54826905376334
44.6599990129471 5.44671116510654
44.6799990125 5.34519617561164
44.699999012053 5.24672638284982
44.719999011606 5.2106717336597
44.7399990111589 5.19677420376317
44.7599990107119 5.15207873921629
44.7799990102649 5.07405945383111
44.7999990098178 5.05370303260301
44.8199990093708 5.05678076799292
44.8399990089238 5.10196284246856
44.8599990084767 5.05291978237741
44.8799990080297 5.10703992421201
44.8999990075827 5.0484010536046
44.9199990071356 5.01224406283414
44.9399990066886 4.92465067720944
44.9599990062416 4.97216313142471
44.9799990057945 4.9432320731181
44.9999990053475 4.92341413048573
45.0199990049005 4.87171682386771
45.0399990044534 4.95262458104394
45.0599990040064 5.01032950837418
45.0799990035594 5.0286245888129
45.0999990031123 5.01404654100801
45.1199990026653 5.00299209653744
45.1399990022182 5.03205132962392
45.1599990017712 4.97982502109342
45.1799990013242 4.89496059505302
45.1999990008771 4.83838578981499
45.2199990004301 4.86945169766887
45.2399989999831 4.9542158067744
45.259998999536 5.00060675122979
45.279998999089 4.99750637441034
45.299998998642 4.94193753719895
45.3199989981949 4.89879774811458
45.3399989977479 4.88608578683923
45.3599989973009 4.87132863582486
45.3799989968538 4.94692295998957
45.3999989964068 5.06775973606737
45.4199989959598 5.11150440616912
45.4399989955127 5.02023092723735
45.4599989950657 4.99887053107393
45.4799989946187 4.99061971063047
45.4999989941716 4.9520796406648
45.5199989937246 4.87553521768159
45.5399989932776 4.87088922285515
45.5599989928305 4.89201867509371
45.5799989923835 4.85426851353648
45.5999989919364 4.85426464279617
45.6199989914894 4.89424363658717
45.6399989910424 4.93675679055423
45.6599989905953 4.90764258933915
45.6799989901483 4.87405279087681
45.6999989897013 4.8661646858613
45.7199989892542 4.90566685920069
45.7399989888072 4.96189782380399
45.7599989883602 5.06975425957645
45.7799989879131 5.04323909899158
45.7999989874661 4.97795066917657
45.8199989870191 4.89927670005666
45.839998986572 4.87916159366362
45.859998986125 4.87397890876775
45.879998985678 4.88148615681039
45.8999989852309 4.86228724506415
45.9199989847839 4.85290593003133
45.9399989843369 4.80576415742827
45.9599989838898 4.79317526285892
45.9799989834428 4.78841813575769
45.9999989829957 4.81407615048294
46.0199989825487 4.84090738728935
46.0399989821017 4.83297277668977
46.0599989816546 4.7730208789715
46.0799989812076 4.67799299807653
46.0999989807606 4.65555819688387
46.1199989803135 4.64839950663001
46.1399989798665 4.74484039075213
46.1599989794195 4.73614058462113
46.1799989789724 4.70797233713821
46.1999989785254 4.65923032608349
46.2199989780784 4.64805373839223
46.2399989776313 4.69011441355092
46.2599989771843 4.67659262143663
46.2799989767373 4.64526454783501
46.2999989762902 4.71322416473624
46.3199989758432 4.85387272987863
46.3399989753962 4.97355600236623
46.3599989749491 5.01613434552304
46.3799989745021 4.98748079962198
46.3999989740551 4.98140510181321
46.419998973608 4.97151520177851
46.439998973161 4.95473867579724
46.4599989727139 4.98081797497048
46.4799989722669 5.03033982675213
46.4999989718199 4.99399272434798
46.5199989713728 4.91558010583146
46.5399989709258 4.83837314271197
46.5599989704788 4.81445179955204
46.5799989700317 4.84010456192157
46.5999989695847 4.8226681389446
46.6199989691377 4.88409549540565
46.6399989686906 4.86336075815761
46.6599989682436 4.83266566102243
46.6799989677966 4.77853255485845
46.6999989673495 4.73635367195525
46.7199989669025 4.74220444577569
46.7399989664555 4.72913620579625
46.7599989660084 4.75577165349707
46.7799989655614 4.83080214259364
46.7999989651144 4.89171158182594
46.8199989646673 5.03131766396608
46.8399989642203 5.12108509778424
46.8599989637733 5.21765982182933
46.8799989633262 5.22645924519956
46.8999989628792 5.11984680280717
46.9199989624321 5.00007549905508
46.9399989619851 4.84678633045787
46.9599989615381 4.81324082708741
46.979998961091 4.7717390766485
46.999998960644 4.84182859806264
47.019998960197 4.86716256601989
47.0399989597499 4.92581908802313
47.0599989593029 4.92765434970223
47.0799989588559 4.91059662117133
47.0999989584088 4.83021939036373
47.1199989579618 4.83175879166756
47.1399989575148 4.78723025267928
47.1599989570677 4.84528666893254
47.1799989566207 4.79728919781762
47.1999989561737 4.85478582389867
47.2199989557266 4.81283790023649
47.2399989552796 4.86080287671709
47.2599989548326 4.78193071684634
47.2799989543855 4.77205317269509
47.2999989539385 4.69275023068608
47.3199989534914 4.6565937603261
47.3399989530444 4.59544400650098
47.3599989525974 4.59968250774786
47.3799989521503 4.67661913478159
47.3999989517033 4.76288364566935
47.4199989512563 4.74353155027661
47.4399989508092 4.62555880813555
47.4599989503622 4.51634944354029
47.4799989499152 4.56130571880954
47.4999989494681 4.66734311365991
47.5199989490211 4.70818518422076
47.5399989485741 4.7428881018532
47.559998948127 4.73300661460517
47.57999894768 4.80083189143196
47.599998947233 4.79561796996802
47.6199989467859 4.80460299977627
47.6399989463389 4.71146348979064
47.6599989458919 4.68900471306293
47.6799989454448 4.67298732597594
47.6999989449978 4.61605181212165
47.7199989445508 4.56164166859308
47.7399989441037 4.51210517266952
47.7599989436567 4.59597999077402
47.7799989432096 4.63785136696762
47.7999989427626 4.68332195497535
47.8199989423156 4.71497808484441
47.8399989418685 4.65227059346062
47.8599989414215 4.64314846208989
47.8799989409745 4.60423238025869
47.8999989405274 4.59966003371219
47.9199989400804 4.63327164701794
47.9399989396334 4.65155989237171
47.9599989391863 4.63665438134143
47.9799989387393 4.53799015977819
47.9999989382923 4.52708145378451
48.0199989378452 4.56993997864111
48.0399989373982 4.65025028723028
48.0599989369512 4.70958478559938
48.0799989365041 4.76588496478632
48.0999989360571 4.74714178586716
48.1199989356101 4.67909946465858
48.139998935163 4.57196546656452
48.159998934716 4.53143084501375
48.179998934269 4.45816911617441
48.1999989338219 4.47759458707113
48.2199989333749 4.52872796951235
48.2399989329278 4.57177150747938
48.2599989324808 4.54685890423073
48.2799989320338 4.52728314607373
48.2999989315867 4.57136425286215
48.3199989311397 4.66636278374514
48.3399989306927 4.65265038962886
48.3599989302456 4.64798429147632
48.3799989297986 4.51835922847365
48.3999989293516 4.5187071398888
48.4199989289045 4.54578268249121
48.4399989284575 4.62113980232328
48.4599989280105 4.63825272866637
48.4799989275634 4.61636520407907
48.4999989271164 4.63573150153288
48.5199989266694 4.57386787455336
48.5399989262223 4.59234042999908
48.5599989257753 4.55984298987441
48.5799989253283 4.54471336523585
48.5999989248812 4.47797535029386
48.6199989244342 4.43635068265192
48.6399989239872 4.46771070922979
48.6599989235401 4.52499223011228
48.6799989230931 4.61695067651059
48.699998922646 4.62212601296805
48.719998922199 4.52055793259388
48.739998921752 4.4354421611194
48.7599989213049 4.47749357901273
48.7799989208579 4.51080147746583
48.7999989204109 4.5083949547256
48.8199989199638 4.45466663557421
48.8399989195168 4.49866140095193
48.8599989190698 4.51127299209007
48.8799989186227 4.540213273539
48.8999989181757 4.59025302331124
48.9199989177287 4.65817593085135
48.9399989172816 4.66077259554399
48.9599989168346 4.58234898849743
48.9799989163876 4.54896085849275
48.9999989159405 4.51424215625164
49.0199989154935 4.49642092720166
49.0399989150465 4.45461299976875
49.0599989145994 4.51333561924098
49.0799989141524 4.54879527311744
49.0999989137053 4.4935388175285
49.1199989132583 4.42448558972141
49.1399989128113 4.42773521739943
49.1599989123642 4.58602844583742
49.1799989119172 4.59578728932567
49.1999989114702 4.62275789135401
49.2199989110231 4.60871516056278
49.2399989105761 4.64724064229152
49.2599989101291 4.62941389331788
49.279998909682 4.5544640202446
49.299998909235 4.57981462922098
49.319998908788 4.52434522187503
49.3399989083409 4.50980025661288
49.3599989078939 4.45361944879348
49.3799989074469 4.43985944106332
49.3999989069998 4.50374729205055
49.4199989065528 4.59883942747578
49.4399989061058 4.63126355047221
49.4599989056587 4.55678156837226
49.4799989052117 4.47329811311224
49.4999989047647 4.46203192085586
49.5199989043176 4.4795246905203
49.5399989038706 4.4539474664105
49.5599989034235 4.44024904883772
49.5799989029765 4.46799936063649
49.5999989025295 4.53111196992119
49.6199989020824 4.54893806582755
49.6399989016354 4.51957877065245
49.6599989011884 4.48283768457518
49.6799989007413 4.452647131579
49.6999989002943 4.53776242721131
49.7199988998473 4.46921911728107
49.7399988994002 4.44574900656567
49.7599988989532 4.3426772058452
49.7799988985062 4.42499720465309
49.7999988980591 4.49221829101274
49.8199988976121 4.51806702763512
49.8399988971651 4.50013619902668
49.859998896718 4.45256826736846
49.879998896271 4.35907293314361
49.899998895824 4.33324455455553
49.9199988953769 4.33619780180525
49.9399988949299 4.45223956887561
49.9599988944829 4.50638714752718
49.9799988940358 4.47251186530102
49.9999988935888 4.42169507748969
50.0199988931417 4.38407935493627
50.0399988926947 4.41860613946601
50.0599988922477 4.37635188332573
50.0799988918006 4.30196712589524
50.0999988913536 4.33560500040974
50.1199988909066 4.41111203599207
50.1399988904595 4.45960112959902
50.1599988900125 4.47557309610512
50.1799988895655 4.49826656930668
50.1999988891184 4.51146034969043
50.2199988886714 4.4088687322548
50.2399988882244 4.36160214475591
50.2599988877773 4.42469344809233
50.2799988873303 4.48201846851472
50.2999988868833 4.50583601934098
50.3199988864362 4.47372859684184
50.3399988859892 4.39742869383491
50.3599988855422 4.34866341601752
50.3799988850951 4.37653904214824
50.3999988846481 4.45110044910132
50.4199988842011 4.47220847794603
50.439998883754 4.39317554447363
50.459998883307 4.3646503994093
50.4799988828599 4.42516704517958
50.4999988824129 4.48200001502386
50.5199988819659 4.55943935764301
50.5399988815188 4.50298394168492
50.5599988810718 4.53655152631234
50.5799988806248 4.44552817842688
50.5999988801777 4.444103208718
50.6199988797307 4.30257308432027
50.6399988792837 4.34418450329345
50.6599988788366 4.44523901963626
50.6799988783896 4.5732438283843
50.6999988779426 4.53369757224543
50.7199988774955 4.45442454233373
50.7399988770485 4.38713551249563
50.7599988766015 4.44573730068175
50.7799988761544 4.46154516765143
50.7999988757074 4.54718583969616
50.8199988752604 4.54453751099739
50.8399988748133 4.54467168002501
50.8599988743663 4.44752852486699
50.8799988739192 4.39825449058061
50.8999988734722 4.42116889864403
50.9199988730252 4.41326295431924
50.9399988725781 4.42403706593936
50.9599988721311 4.42885575940403
50.9799988716841 4.50259593900695
50.999998871237 4.51424671551255
51.01999887079 4.43087524592345
51.039998870343 4.36607162954003
51.0599988698959 4.38393368326123
51.0799988694489 4.49340095406755
51.0999988690019 4.5771933108894
51.1199988685548 4.57605214026517
51.1399988681078 4.53697283995292
51.1599988676608 4.53311391660273
51.1799988672137 4.5861471450819
51.1999988667667 4.5469322426177
51.2199988663197 4.44859422470651
51.2399988658726 4.39010186663396
51.2599988654256 4.4089519860866
51.2799988649786 4.43256212255439
51.2999988645315 4.427109891978
51.3199988640845 4.45255043135677
51.3399988636374 4.44246921016763
51.3599988631904 4.4004623805524
51.3799988627434 4.36302941161553
51.3999988622963 4.42291234534194
51.4199988618493 4.49792543293427
51.4399988614023 4.51686245207769
51.4599988609552 4.54052541914496
51.4799988605082 4.56633587954805
51.4999988600612 4.70928489547186
51.5199988596141 4.81947891920341
51.5399988591671 4.94848003073549
51.5599988587201 5.02299514309335
51.579998858273 5.18135404172829
51.599998857826 5.29273071776664
51.619998857379 5.37989969883324
51.6399988569319 5.3928702925251
51.6599988564849 5.3692648990825
51.6799988560379 5.25682455237744
51.6999988555908 5.23243710617584
51.7199988551438 5.17011367680415
51.7399988546968 5.15533283228687
51.7599988542497 4.98932897821885
51.7799988538027 4.91129072355383
51.7999988533556 4.81175789973574
51.8199988529086 4.74019450187331
51.8399988524616 4.59875595913505
51.8599988520145 4.57860195612996
51.8799988515675 4.5737495691283
51.8999988511205 4.63726341819982
51.9199988506734 4.63877722611255
51.9399988502264 4.63796942537959
51.9599988497794 4.53541918453193
51.9799988493323 4.47011217199526
51.9999988488853 4.46313165304959
52.0199988484383 4.59846556000974
52.0399988479912 4.60037356879339
52.0599988475442 4.49937757898493
52.0799988470972 4.45321332242153
52.0999988466501 4.46035242813436
52.1199988462031 4.48046818867809
52.1399988457561 4.36174599884576
52.159998845309 4.27919682455609
52.179998844862 4.28362641928694
52.1999988444149 4.34434990455211
52.2199988439679 4.38671331728434
52.2399988435209 4.41294313213395
52.2599988430738 4.34854497154851
52.2799988426268 4.34528054534765
52.2999988421798 4.4051436366187
52.3199988417327 4.51006333511363
52.3399988412857 4.51838658761778
52.3599988408387 4.48857557726847
52.3799988403916 4.49393259063078
52.3999988399446 4.48940716512154
52.4199988394976 4.47994679736863
52.4399988390505 4.44361823619546
52.4599988386035 4.4491199529309
52.4799988381565 4.38587293221324
52.4999988377094 4.38768812996255
52.5199988372624 4.36915266201505
52.5399988368154 4.45486364303425
52.5599988363683 4.47921071728758
52.5799988359213 4.52768923161799
52.5999988354743 4.434197942736
52.6199988350272 4.3650440758192
52.6399988345802 4.34605053769261
52.6599988341331 4.44072499807442
52.6799988336861 4.48740698105526
52.6999988332391 4.53713751604037
52.719998832792 4.55255726443833
52.739998832345 4.61481752075683
52.759998831898 4.51952756232404
52.7799988314509 4.45597202628398
52.7999988310039 4.38933741131519
52.8199988305569 4.44384810817105
52.8399988301098 4.38302099894116
52.8599988296628 4.33567737662654
52.8799988292158 4.26653072471717
52.8999988287687 4.27125314831791
52.9199988283217 4.35098355181103
52.9399988278747 4.36108658417044
52.9599988274276 4.44132170870983
52.9799988269806 4.4433307180005
52.9999988265336 4.51477075749139
53.0199988260865 4.5164205778678
53.0399988256395 4.52213144909929
53.0599988251925 4.55661696834447
53.0799988247454 4.53344334360401
53.0999988242984 4.51765656142363
53.1199988238513 4.49612831471052
53.1399988234043 4.45653044578286
53.1599988229573 4.37166201358949
53.1799988225102 4.35403168640011
53.1999988220632 4.37486263456671
53.2199988216162 4.4151139090885
53.2399988211691 4.35907812479317
53.2599988207221 4.34401961230474
53.2799988202751 4.32958701611058
53.299998819828 4.40423074776367
53.319998819381 4.40282527209319
53.339998818934 4.40686125063485
53.3599988184869 4.31548726450663
53.3799988180399 4.29548267905402
53.3999988175929 4.29879521873639
53.4199988171458 4.41307713452548
53.4399988166988 4.44214178129998
53.4599988162518 4.39992533250102
53.4799988158047 4.39271996785403
53.4999988153577 4.3449393011139
53.5199988149107 4.40107678282167
53.5399988144636 4.39464015938648
53.5599988140166 4.46170253831303
53.5799988135695 4.43676919022944
53.5999988131225 4.34533867132365
53.6199988126755 4.30069079691963
53.6399988122284 4.27924178164775
53.6599988117814 4.30946543079289
53.6799988113344 4.33435405822582
53.6999988108873 4.44101386031121
53.7199988104403 4.44307894343047
53.7399988099933 4.49958603690509
53.7599988095462 4.47997544182649
53.7799988090992 4.59287961767944
53.7999988086522 4.64811599433202
53.8199988082051 4.65164582140144
53.8399988077581 4.67100948551992
53.8599988073111 4.67117400523348
53.879998806864 4.75829091463925
53.899998806417 4.8006165074566
53.91999880597 4.86721891250783
53.9399988055229 4.81950466049779
53.9599988050759 4.7224001741422
53.9799988046288 4.63462733082933
53.9999988041818 4.5853273283689
54.0199988037348 4.55968149566827
54.0399988032877 4.55335164396002
54.0599988028407 4.65771072718765
54.0799988023937 4.65762448605234
54.0999988019466 4.6041253439356
54.1199988014996 4.44975617943591
54.1399988010526 4.43211923461093
54.1599988006055 4.44375295591446
54.1799988001585 4.46337151696921
54.1999987997115 4.41343599082543
54.2199987992644 4.31336448113742
54.2399987988174 4.3147083520101
54.2599987983704 4.3318517093216
54.2799987979233 4.36259569087328
54.2999987974763 4.34403356851697
54.3199987970293 4.32630906513075
54.3399987965822 4.31850828818105
54.3599987961352 4.31533657545258
54.3799987956882 4.33226446102338
54.3999987952411 4.34141514591169
54.4199987947941 4.34948896325336
54.439998794347 4.36677125682883
54.4599987939 4.36157002884533
54.479998793453 4.39208700390747
54.4999987930059 4.35158759542673
54.5199987925589 4.37703230933493
54.5399987921119 4.35946436970872
54.5599987916648 4.39349624774293
54.5799987912178 4.39108601248861
54.5999987907708 4.33895356514716
54.6199987903237 4.32784729955869
54.6399987898767 4.33824596652731
54.6599987894297 4.35410568901717
54.6799987889826 4.33524066492488
54.6999987885356 4.33716042920361
54.7199987880886 4.38356166004423
54.7399987876415 4.41072967994503
54.7599987871945 4.43590659895393
54.7799987867475 4.4056092631066
54.7999987863004 4.41159954153821
54.8199987858534 4.38994620524046
54.8399987854064 4.38649556161786
54.8599987849593 4.35726548784827
54.8799987845123 4.32997283800833
54.8999987840652 4.34712283539413
54.9199987836182 4.42962287111775
54.9399987831712 4.47530765469239
54.9599987827241 4.43539422702925
54.9799987822771 4.41074280476768
54.9999987818301 4.40748091999944
55.019998781383 4.42771231040543
55.039998780936 4.32005391472878
55.059998780489 4.28435417402531
55.0799987800419 4.26237123415432
55.0999987795949 4.36191545183438
55.1199987791479 4.41473984710156
55.1399987787008 4.38076115476764
55.1599987782538 4.31002672073872
55.1799987778068 4.2408907564997
55.1999987773597 4.23717004519909
55.2199987769127 4.21879195417213
55.2399987764657 4.19509260597148
55.2599987760186 4.22208919670381
55.2799987755716 4.27225881575477
55.2999987751246 4.27815051230597
55.3199987746775 4.29531671236806
55.3399987742305 4.33101988121796
55.3599987737834 4.43021485465902
55.3799987733364 4.52519356668599
55.3999987728894 4.48047158142174
55.4199987724423 4.43341611958014
55.4399987719953 4.42175779286312
55.4599987715483 4.52534038602373
55.4799987711012 4.62468235363588
55.4999987706542 4.65567849095112
55.5199987702072 4.82069094181865
55.5399987697601 4.8606032489174
55.5599987693131 4.9109363202453
55.5799987688661 4.86975754948234
55.599998768419 4.8600843518599
55.619998767972 4.79551590120624
55.639998767525 4.73646246383296
55.6599987670779 4.70858246182755
55.6799987666309 4.66718945641676
55.6999987661839 4.55353267590768
55.7199987657368 4.42636812317942
55.7399987652898 4.381840380204
55.7599987648427 4.35648494341105
55.7799987643957 4.38125271283026
55.7999987639487 4.51570964238959
55.8199987635016 4.75100028083329
55.8399987630546 4.88838867670335
55.8599987626076 4.7662229622102
55.8799987621605 4.52518890147806
55.8999987617135 4.48333667817297
55.9199987612665 4.61309217457244
55.9399987608194 4.66722459416196
55.9599987603724 4.66989875526894
55.9799987599254 4.68632394226651
55.9999987594783 4.79423703877562
56.0199987590313 4.84645058034959
56.0399987585843 4.85941667392037
56.0599987581372 4.85496989462657
56.0799987576902 4.96937976790644
56.0999987572432 5.0042830780662
56.1199987567961 4.9514823251119
56.1399987563491 4.74224542492228
56.1599987559021 4.56261731238602
56.179998755455 4.59901653937066
56.199998755008 4.80498284643621
56.2199987545609 5.01061071885295
56.2399987541139 5.07246595263986
56.2599987536669 5.06660680492016
56.2799987532198 4.94638478527216
56.2999987527728 4.89771311149769
56.3199987523258 4.82868026511642
56.3399987518787 4.84248587097594
56.3599987514317 4.80758987802669
56.3799987509847 4.89560733394231
56.3999987505376 4.80822088741894
56.4199987500906 4.7945563699519
56.4399987496436 4.81218177924787
56.4599987491965 4.99921961259134
56.4799987487495 4.85276652361094
56.4999987483025 4.81460565205907
56.5199987478554 4.86383755161805
56.5399987474084 4.99340281774187
56.5599987469614 4.9077186711311
56.5799987465143 4.63298697236673
56.5999987460673 4.57271525064298
56.6199987456203 4.5534843434976
56.6399987451732 5.11254389136661
56.6599987447262 5.45667211391909
56.6799987442791 5.42315176013213
56.6999987438321 4.88120950594393
56.7199987433851 4.57522023638449
56.739998742938 4.42944393126877
56.759998742491 4.7853340759084
56.779998742044 5.2945098912298
56.7999987415969 6.41016769467923
56.8199987411499 6.83246789265617
56.8399987407029 6.69725928800613
56.8599987402558 5.69297340989439
56.8799987398088 4.24968567712047
56.8999987393618 3.03859312441163
