'Id: "" Comment: "Integrate frame 2018_8-7 FAGACs_try2001.gfrmwith cursor Full Frame Cursor #1" Operator: "MAF user" Anode: "Cu" Scantype: "TwoTheta" TimePerStep: "90" 
10.7399997711182 6.1004875978895
10.7599997706711 6.352000725331
10.7799997702241 6.25423891394666
10.7999997697771 6.25581052797191
10.81999976933 5.77211675569361
10.839999768883 5.64247231170409
10.859999768436 5.57132039667495
10.8799997679889 5.35152150717104
10.8999997675419 5.1531119793622
10.9199997670949 5.06877227385584
10.9399997666478 5.01230710428437
10.9599997662008 4.87035999879513
10.9799997657537 4.73105832139735
10.9999997653067 4.6491198736903
11.0199997648597 4.852598685223
11.0399997644126 4.97126889793489
11.0599997639656 4.99455358256221
11.0799997635186 4.78951664835574
11.0999997630715 4.61323602759294
11.1199997626245 4.56605784171736
11.1399997621775 4.63019928948111
11.1599997617304 4.70576632186261
11.1799997612834 4.74056802228318
11.1999997608364 4.69540941151902
11.2199997603893 4.70654238274991
11.2399997599423 4.70742894308802
11.2599997594953 4.75432004986401
11.2799997590482 4.75799587927219
11.2999997586012 4.69798816636425
11.3199997581542 4.66117564305546
11.3399997577071 4.64529463995204
11.3599997572601 4.74101315343141
11.379999756813 4.75913530335765
11.399999756366 4.71161972198438
11.419999755919 4.6833013640543
11.4399997554719 4.6389238636163
11.4599997550249 4.58150449454533
11.4799997545779 4.50148545280703
11.4999997541308 4.49986751841986
11.5199997536838 4.5525215115892
11.5399997532368 4.50541550246302
11.5599997527897 4.45751701338687
11.5799997523427 4.41084725680998
11.5999997518957 4.43402850134262
11.6199997514486 4.52638197541703
11.6399997510016 4.68804639274364
11.6599997505546 4.79155897011079
11.6799997501075 4.77963222011786
11.6999997496605 4.6730894594068
11.7199997492135 4.59682944069731
11.7399997487664 4.56656427693404
11.7599997483194 4.57763319202008
11.7799997478724 4.57402748326999
11.7999997474253 4.54099521062429
11.8199997469783 4.54723213725941
11.8399997465312 4.52211063864252
11.8599997460842 4.48269909468642
11.8799997456372 4.4281821041493
11.8999997451901 4.40857070264653
11.9199997447431 4.51833249351239
11.9399997442961 4.62335337325342
11.959999743849 4.75542345622804
11.979999743402 4.86923755795329
11.999999742955 4.86752884509969
12.0199997425079 4.80816414223051
12.0399997420609 4.76721708431489
12.0599997416139 4.76591770709315
12.0799997411668 4.72399636100123
12.0999997407198 4.6540487708929
12.1199997402728 4.63415245870021
12.1399997398257 4.63566609996316
12.1599997393787 4.62986672157131
12.1799997389317 4.67552067583039
12.1999997384846 4.72014099271243
12.2199997380376 4.672525386534
12.2399997375906 4.5906604756529
12.2599997371435 4.52287997714515
12.2799997366965 4.48512741252602
12.2999997362494 4.48054612029532
12.3199997358024 4.52915800664264
12.3399997353554 4.60390370452075
12.3599997349083 4.69851916268015
12.3799997344613 4.70543473542164
12.3999997340143 4.77190178998315
12.4199997335672 4.72956018628439
12.4399997331202 4.69303335735637
12.4599997326732 4.62534923451607
12.4799997322261 4.58716616163848
12.4999997317791 4.55065584869313
12.5199997313321 4.57024154907775
12.539999730885 4.65959256474548
12.559999730438 4.68173487781074
12.579999729991 4.61156563626679
12.5999997295439 4.52887646415761
12.6199997290969 4.54314279453702
12.6399997286499 4.58888832251503
12.6599997282028 4.67349234436714
12.6799997277558 4.60160802022517
12.6999997273088 4.58574763950672
12.7199997268617 4.61810251947421
12.7399997264147 4.69394162818272
12.7599997259676 4.71469071469345
12.7799997255206 4.64920084845566
12.7999997250736 4.60499316558782
12.8199997246265 4.54105775623147
12.8399997241795 4.50657305698839
12.8599997237325 4.55805421200165
12.8799997232854 4.60757220218107
12.8999997228384 4.65754418161891
12.9199997223914 4.65928917600549
12.9399997219443 4.64374621925463
12.9599997214973 4.61172526935837
12.9799997210503 4.57492415098487
12.9999997206032 4.57308485063403
13.0199997201562 4.60329517998084
13.0399997197092 4.67546232721108
13.0599997192621 4.63222311100923
13.0799997188151 4.61167965622505
13.0999997183681 4.58181127699842
13.119999717921 4.66885975833557
13.139999717474 4.7198552763518
13.1599997170269 4.74335293843666
13.1799997165799 4.77740155008979
13.1999997161329 4.78857490123649
13.2199997156858 4.74857347378421
13.2399997152388 4.66263811919863
13.2599997147918 4.66628724791911
13.2799997143447 4.67788301753468
13.2999997138977 4.6904457390693
13.3199997134507 4.73157638520522
13.3399997130036 4.74293090882607
13.3599997125566 4.74487519080124
13.3799997121096 4.69897777972561
13.3999997116625 4.70762144055962
13.4199997112155 4.68675461330286
13.4399997107685 4.6499555818349
13.4599997103214 4.61296835844437
13.4799997098744 4.63524811616455
13.4999997094274 4.6248142673259
13.5199997089803 4.67738581719916
13.5399997085333 4.75315869100766
13.5599997080863 4.81427093311882
13.5799997076392 4.74446752801726
13.5999997071922 4.68124479282958
13.6199997067451 4.67943868219974
13.6399997062981 4.6674407607394
13.6599997058511 4.61042735246406
13.679999705404 4.58317553883314
13.699999704957 4.68766755265642
13.71999970451 4.73942050023516
13.7399997040629 4.78205913197871
13.7599997036159 4.84407932384944
13.7799997031689 4.83374497563884
13.7999997027218 4.79830321022668
13.8199997022748 4.72699991475429
13.8399997018278 4.75029170225605
13.8599997013807 4.79647339362424
13.8799997009337 4.80804147675493
13.8999997004867 4.81463536364238
13.9199997000396 4.83268220973421
13.9399996995926 4.83131919655844
13.9599996991456 4.79631666013154
13.9799996986985 4.74327837609188
13.9999996982515 4.76656254573173
14.0199996978045 4.75083439632291
14.0399996973574 4.74993925207554
14.0599996969104 4.76529772351076
14.0799996964633 4.77407198460494
14.0999996960163 4.81646642283639
14.1199996955693 4.87068830220382
14.1399996951222 4.93530453008692
14.1599996946752 4.95130204320845
14.1799996942282 4.93431158543749
14.1999996937811 4.95163459456178
14.2199996933341 4.92012003512487
14.2399996928871 4.94566481099944
14.25999969244 4.9691979695814
14.279999691993 4.98248545407285
14.299999691546 4.95108486623131
14.3199996910989 4.95956116002211
14.3399996906519 4.98973125022595
14.3599996902049 5.00916364271757
14.3799996897578 5.01870304739734
14.3999996893108 5.08153121037152
14.4199996888638 5.15782705970299
14.4399996884167 5.21296416684577
14.4599996879697 5.26674643447461
14.4799996875226 5.31371604695939
14.4999996870756 5.39627823984265
14.5199996866286 5.4975011558267
14.5399996861815 5.63986556975214
14.5599996857345 5.83844160126571
14.5799996852875 6.13347888008698
14.5999996848404 6.43733375411047
14.6199996843934 6.76469425460253
14.6399996839464 7.23212815669037
14.6599996834993 7.77267647426814
14.6799996830523 8.49087517921739
14.6999996826053 9.38146584341199
14.7199996821582 10.1236669305124
14.7399996817112 10.7101093812673
14.7599996812642 11.3077261947202
14.7799996808171 11.8422301518604
14.7999996803701 12.1009246645604
14.8199996799231 12.1353011303796
14.839999679476 11.7774809041771
14.859999679029 11.2470840828524
14.879999678582 10.5656852596406
14.8999996781349 9.83488255483513
14.9199996776879 9.11144862646404
14.9399996772408 8.25185600590341
14.9599996767938 7.49930515791638
14.9799996763468 6.97855901432491
14.9999996758997 6.58598168259534
15.0199996754527 6.21062298468346
15.0399996750057 5.8867093948037
15.0599996745586 5.68413417577717
15.0799996741116 5.54071831509707
15.0999996736646 5.47055081632813
15.1199996732175 5.35448328652558
15.1399996727705 5.30380907071971
15.1599996723235 5.21767566313142
15.1799996718764 5.12369785482345
15.1999996714294 5.02888311164771
15.2199996709824 4.98668338017967
15.2399996705353 4.97745977484915
15.2599996700883 4.953473660654
15.2799996696413 4.94193088795709
15.2999996691942 4.91879426243543
15.3199996687472 4.90345348938072
15.3399996683002 4.86137991883219
15.3599996678531 4.83217169753879
15.3799996674061 4.85525451013885
15.399999666959 4.91728875775145
15.419999666512 4.93937428272652
15.439999666065 4.96641137624105
15.4599996656179 4.91198592694595
15.4799996651709 4.84323551813755
15.4999996647239 4.75113522484226
15.5199996642768 4.74857144617953
15.5399996638298 4.74374235709068
15.5599996633828 4.67147719532541
15.5799996629357 4.67913837759819
15.5999996624887 4.7663856607974
15.6199996620417 4.8520726136557
15.6399996615946 4.83490434400238
15.6599996611476 4.78167259566951
15.6799996607006 4.73533163209636
15.6999996602535 4.70000129411553
15.7199996598065 4.65318637856307
15.7399996593595 4.67798302261483
15.7599996589124 4.73196136231281
15.7799996584654 4.77225919028732
15.7999996580184 4.69850742449732
15.8199996575713 4.6115929268945
15.8399996571243 4.59001617983541
15.8599996566772 4.58546132219477
15.8799996562302 4.61280615311276
15.8999996557832 4.617827244087
15.9199996553361 4.70191300425811
15.9399996548891 4.72954639657132
15.9599996544421 4.73733673799793
15.979999653995 4.75346611420602
15.999999653548 4.80275104107809
16.019999653101 4.80626036747562
16.0399996526539 4.84044178085862
16.0599996522069 4.85313920648483
16.0799996517599 4.86817063551647
16.0999996513128 4.83894744378987
16.1199996508658 4.80212614912611
16.1399996504188 4.79256489910962
16.1599996499717 4.7995939680754
16.1799996495247 4.83934094154744
16.1999996490777 4.83820596417869
16.2199996486306 4.8470181152901
16.2399996481836 4.77352259770146
16.2599996477365 4.78666811751562
16.2799996472895 4.79000710159489
16.2999996468425 4.79261624278753
16.3199996463954 4.76545489784064
16.3399996459484 4.81830770184988
16.3599996455014 4.86217657074081
16.3799996450543 4.8822699043679
16.3999996446073 4.87441250884709
16.4199996441603 4.89112221077208
16.4399996437132 4.8914863913984
16.4599996432662 4.85334697752063
16.4799996428192 4.81090125814662
16.4999996423721 4.8080540420876
16.5199996419251 4.86414152804059
16.5399996414781 4.90108618711457
16.559999641031 4.89684895032157
16.579999640584 4.85954961035851
16.599999640137 4.83844380338639
16.6199996396899 4.79801321039303
16.6399996392429 4.74809124613355
16.6599996387959 4.76581325594546
16.6799996383488 4.83674727871507
16.6999996379018 4.92389022469608
16.7199996374547 4.95491255863749
16.7399996370077 4.93420548950354
16.7599996365607 4.93447894884809
16.7799996361136 4.90509848399126
16.7999996356666 4.84747221955612
16.8199996352196 4.83546889846111
16.8399996347725 4.82203325032077
16.8599996343255 4.85027782336871
16.8799996338785 4.86180059879209
16.8999996334314 4.94691874340817
16.9199996329844 4.96995311891195
16.9399996325374 4.97351434542183
16.9599996320903 4.9560563575818
16.9799996316433 4.95255966493287
16.9999996311963 4.89359504333656
17.0199996307492 4.83644474345905
17.0399996303022 4.81019161421884
17.0599996298552 4.84525922780245
17.0799996294081 4.93139884243463
17.0999996289611 4.95880180071308
17.1199996285141 4.97104323682814
17.139999628067 4.92001611025596
17.15999962762 4.87552461841689
17.1799996271729 4.88008400886094
17.1999996267259 4.915764947803
17.2199996262789 4.94304938140416
17.2399996258318 4.89291619778731
17.2599996253848 4.85725537497966
17.2799996249378 4.82388945019373
17.2999996244907 4.84323417656772
17.3199996240437 4.89357909787928
17.3399996235967 4.92054980448016
17.3599996231496 4.90936453933462
17.3799996227026 4.89100635819919
17.3999996222556 4.91397594988916
17.4199996218085 4.95292510171922
17.4399996213615 4.89273896451702
17.4599996209145 4.86683528473132
17.4799996204674 4.88599097651825
17.4999996200204 4.93692163714597
17.5199996195734 4.94035336890538
17.5399996191263 4.9164596511282
17.5599996186793 4.92173731976756
17.5799996182323 4.92365968479161
17.5999996177852 4.91296943665044
17.6199996173382 4.94581768066048
17.6399996168911 4.94970482889202
17.6599996164441 4.92767419057983
17.6799996159971 4.99931275542776
17.69999961555 5.02570891548369
17.719999615103 5.07211543820878
17.739999614656 5.02765914780746
17.7599996142089 5.02958968164557
17.7799996137619 5.01100232702236
17.7999996133149 4.94092465490113
17.8199996128678 4.97960733401519
17.8399996124208 5.02258913199731
17.8599996119738 5.06820357948945
17.8799996115267 5.01885800310552
17.8999996110797 4.9519283825858
17.9199996106327 4.98777021629299
17.9399996101856 4.9979579313145
17.9599996097386 5.01100790283676
17.9799996092916 5.00769082926666
17.9999996088445 5.02498201419017
18.0199996083975 5.0517603765349
18.0399996079504 5.05539683668021
18.0599996075034 5.09123439381329
18.0799996070564 5.09979049852254
18.0999996066093 5.10382485093326
18.1199996061623 5.09357619593877
18.1399996057153 5.08524851583985
18.1599996052682 5.09077035535164
18.1799996048212 5.09546472882933
18.1999996043742 5.08004733618417
18.2199996039271 5.0440908277028
18.2399996034801 5.13480858989418
18.2599996030331 5.1961272472337
18.279999602586 5.19912939708613
18.299999602139 5.15645104859895
18.319999601692 5.12471951024338
18.3399996012449 5.11974790004526
18.3599996007979 5.15607308485229
18.3799996003509 5.16742677457501
18.3999995999038 5.19495055022891
18.4199995994568 5.22134443141361
18.4399995990098 5.19369985768219
18.4599995985627 5.19224564390757
18.4799995981157 5.24452637093918
18.4999995976686 5.28763774960388
18.5199995972216 5.27437842284332
18.5399995967746 5.2549497328515
18.5599995963275 5.26011872690965
18.5799995958805 5.2551567781659
18.5999995954335 5.19696474407547
18.6199995949864 5.19724478645119
18.6399995945394 5.2450520586721
18.6599995940924 5.28782524684739
18.6799995936453 5.32622982091152
18.6999995931983 5.31826702788857
18.7199995927513 5.3299540604941
18.7399995923042 5.29282820026802
18.7599995918572 5.23096260097927
18.7799995914102 5.20709702783451
18.7999995909631 5.20660080273862
18.8199995905161 5.250840086708
18.8399995900691 5.29757056765515
18.859999589622 5.3464756197717
18.879999589175 5.33567977558723
18.899999588728 5.31390408899519
18.9199995882809 5.29565453473663
18.9399995878339 5.29746100955983
18.9599995873868 5.33592646163722
18.9799995869398 5.38876837635306
18.9999995864928 5.41873594976441
19.0199995860457 5.41626920148142
19.0399995855987 5.40803430251328
19.0599995851517 5.44937718690588
19.0799995847046 5.46689736656549
19.0999995842576 5.49191037667834
19.1199995838106 5.44739508226409
19.1399995833635 5.44438672831281
19.1599995829165 5.47502740191748
19.1799995824695 5.4545807387703
19.1999995820224 5.41365496754729
19.2199995815754 5.42658025450841
19.2399995811284 5.43652041026382
19.2599995806813 5.44838379092849
19.2799995802343 5.47268225744523
19.2999995797873 5.50163565905071
19.3199995793402 5.54431424531968
19.3399995788932 5.58805341614561
19.3599995784462 5.61870577141512
19.3799995779991 5.62559217551836
19.3999995775521 5.62458034189251
19.419999577105 5.63050130472508
19.439999576658 5.62660016075919
19.459999576211 5.61943689479589
19.4799995757639 5.59247201600213
19.4999995753169 5.58373745623457
19.5199995748699 5.52433736926768
19.5399995744228 5.58548095145269
19.5599995739758 5.60685852877715
19.5799995735288 5.67753144465586
19.5999995730817 5.66916014775991
19.6199995726347 5.65073878565642
19.6399995721877 5.63546447338933
19.6599995717406 5.6394525240641
19.6799995712936 5.60309168602349
19.6999995708466 5.63632267836278
19.7199995703995 5.71123738375876
19.7399995699525 5.76524241455148
19.7599995695055 5.72701477369106
19.7799995690584 5.67660803090974
19.7999995686114 5.67544006888887
19.8199995681643 5.73098306864117
19.8399995677173 5.73286942305977
19.8599995672703 5.67287259180952
19.8799995668232 5.56906338716216
19.8999995663762 5.60910792363567
19.9199995659292 5.65703674248649
19.9399995654821 5.70156755255473
19.9599995650351 5.79663357931864
19.9799995645881 5.83073134752289
19.999999564141 5.80849156570367
20.019999563694 5.7360126371515
20.039999563247 5.71456779269565
20.0599995627999 5.73537976619826
20.0799995623529 5.79198512518014
20.0999995619059 5.83230402908176
20.1199995614588 5.82599667795798
20.1399995610118 5.79364093175229
20.1599995605648 5.83755565749032
20.1799995601177 5.93113853773639
20.1999995596707 5.93486266407332
20.2199995592237 5.90174645929878
20.2399995587766 5.89033912581755
20.2599995583296 5.91476385090346
20.2799995578825 5.94597567864153
20.2999995574355 5.97891751449716
20.3199995569885 6.01150820579127
20.3399995565414 6.00977305822389
20.3599995560944 5.95716670198283
20.3799995556474 5.90654694665352
20.3999995552003 5.92644597485724
20.4199995547533 6.04463502546327
20.4399995543063 6.11956704681988
20.4599995538592 6.12489706370194
20.4799995534122 6.08753438561517
20.4999995529652 6.09397893984222
20.5199995525181 6.153985836519
20.5399995520711 6.1870038616509
20.5599995516241 6.2502835063943
20.579999551177 6.24148312705732
20.59999955073 6.23951648142047
20.619999550283 6.24949294339353
20.6399995498359 6.30508016614665
20.6599995493889 6.40827310167706
20.6799995489419 6.50340925985968
20.6999995484948 6.55419182221983
20.7199995480478 6.63008007739607
20.7399995476007 6.75033657703239
20.7599995471537 6.90814295859005
20.7799995467067 7.11029475614027
20.7999995462596 7.45648526125638
20.8199995458126 7.84803225772239
20.8399995453656 8.25198297459741
20.8599995449185 8.58835474255066
20.8799995444715 8.87627037928131
20.8999995440245 9.13710129254829
20.9199995435774 9.40487524864477
20.9399995431304 9.60488058242188
20.9599995426834 9.77594140545366
20.9799995422363 9.75008079393132
20.9999995417893 9.68110013562946
21.0199995413423 9.54575553638725
21.0399995408952 9.36976121691109
21.0599995404482 8.99634535091134
21.0799995400012 8.59555718454519
21.0999995395541 8.32714602236961
21.1199995391071 8.14193935102532
21.13999953866 7.78739859954701
21.159999538213 7.43399673370211
21.179999537766 7.24565650876589
21.1999995373189 7.15402491915353
21.2199995368719 7.05106200646315
21.2399995364249 6.88173241445723
21.2599995359778 6.78946234359887
21.2799995355308 6.72026480457601
21.2999995350838 6.6246903258607
21.3199995346367 6.55002945611034
21.3399995341897 6.561534153033
21.3599995337427 6.581113377266
21.3799995332956 6.57093116018263
21.3999995328486 6.58325928658372
21.4199995324016 6.60946021454557
21.4399995319545 6.56035739313175
21.4599995315075 6.45269195861867
21.4799995310605 6.40458390656987
21.4999995306134 6.46238200846674
21.5199995301664 6.53031435784743
21.5399995297194 6.55653695733004
21.5599995292723 6.55898933496479
21.5799995288253 6.56760147718209
21.5999995283782 6.52955911523867
21.6199995279312 6.43810465965079
21.6399995274842 6.42598969547445
21.6599995270371 6.49016063696366
21.6799995265901 6.55308415503992
21.6999995261431 6.5896834139274
21.719999525696 6.55530024957161
21.739999525249 6.55027478956876
21.759999524802 6.53124821819254
21.7799995243549 6.53720297169672
21.7999995239079 6.52630432316631
21.8199995234609 6.48903853956237
21.8399995230138 6.43035483855934
21.8599995225668 6.51229131622419
21.8799995221198 6.62588719585029
21.8999995216727 6.71102807098623
21.9199995212257 6.70594215974453
21.9399995207787 6.73599286395642
21.9599995203316 6.74898219421828
21.9799995198846 6.72285050839356
21.9999995194376 6.64560791949678
22.0199995189905 6.62135332045879
22.0399995185435 6.63101144099988
22.0599995180964 6.65077072983243
22.0799995176494 6.58132632780843
22.0999995172024 6.53390736121553
22.1199995167553 6.60918689397369
22.1399995163083 6.74912551592658
22.1599995158613 6.81811669411135
22.1799995154142 6.75211454548051
22.1999995149672 6.6949604391036
22.2199995145202 6.60719140750474
22.2399995140731 6.58967933801115
22.2599995136261 6.60917621463971
22.2799995131791 6.69893850132886
22.299999512732 6.73925369691038
22.319999512285 6.72053363986139
22.339999511838 6.73083197232445
22.3599995113909 6.73537903396571
22.3799995109439 6.76747398941773
22.3999995104969 6.73696242397503
22.4199995100498 6.73596385267881
22.4399995096028 6.75777229746058
22.4599995091558 6.75596556961881
22.4799995087087 6.75550707808797
22.4999995082617 6.76785122200866
22.5199995078146 6.88110452438534
22.5399995073676 6.90476051359151
22.5599995069206 7.00475629128887
22.5799995064735 7.01521478485928
22.5999995060265 7.01883805262056
22.6199995055795 6.97537906986464
22.6399995051324 6.87591654636415
22.6599995046854 6.80940914276976
22.6799995042384 6.81736460750321
22.6999995037913 6.89996280600903
22.7199995033443 6.9568515077568
22.7399995028973 6.91293578575976
22.7599995024502 6.93775343439551
22.7799995020032 6.94068530341978
22.7999995015562 6.90429428660234
22.8199995011091 6.81908290691366
22.8399995006621 6.85512942215347
22.8599995002151 6.86421973233247
22.879999499768 6.86702031787399
22.899999499321 6.85653570769527
22.9199994988739 6.82819621922862
22.9399994984269 6.79471303821203
22.9599994979799 6.74872821472571
22.9799994975328 6.82064952604709
22.9999994970858 6.88516774512875
23.0199994966388 6.89369168586714
23.0399994961917 6.86917919642602
23.0599994957447 6.89814798205152
23.0799994952977 7.00373876420453
23.0999994948506 7.07405803490132
23.1199994944036 7.07449455210294
23.1399994939566 7.02709846523428
23.1599994935095 7.02144830366035
23.1799994930625 7.02216349443041
23.1999994926155 7.10036660890868
23.2199994921684 7.17799890856104
23.2399994917214 7.2077896524805
23.2599994912744 7.19507703240917
23.2799994908273 7.16723189537682
23.2999994903803 7.15708017647452
23.3199994899333 7.14346941067304
23.3399994894862 7.18916006228686
23.3599994890392 7.23684047966424
23.3799994885921 7.21952822750175
23.3999994881451 7.25450212794052
23.4199994876981 7.3237433050609
23.439999487251 7.34381213217892
23.459999486804 7.25437924756563
23.479999486357 7.25664343277983
23.4999994859099 7.33070593667016
23.5199994854629 7.29742305086724
23.5399994850159 7.12841391554815
23.5599994845688 7.11782482041136
23.5799994841218 7.22153396160628
23.5999994836748 7.29081342995016
23.6199994832277 7.2413971140412
23.6399994827807 7.23828474107498
23.6599994823337 7.263537045331
23.6799994818866 7.28127020107065
23.6999994814396 7.30308720993872
23.7199994809926 7.30524269525638
23.7399994805455 7.26339345369036
23.7599994800985 7.25410462857484
23.7799994796515 7.27946576039205
23.7999994792044 7.32230841112003
23.8199994787574 7.31994864897848
23.8399994783103 7.28518174408988
23.8599994778633 7.27965796872497
23.8799994774163 7.23564236192784
23.8999994769692 7.22272025495028
23.9199994765222 7.18588900603796
23.9399994760752 7.23867356593832
23.9599994756281 7.2256733738281
23.9799994751811 7.16198439680192
23.9999994747341 7.21481973728619
24.019999474287 7.2307720551598
24.03999947384 7.22422605541509
24.059999473393 7.16892259759435
24.0799994729459 7.1580938419815
24.0999994724989 7.11384257724985
24.1199994720519 7.12529432555528
24.1399994716048 7.18018569268466
24.1599994711578 7.20766513472755
24.1799994707108 7.22927723018669
24.1999994702637 7.21914565048496
24.2199994698167 7.18406855041096
24.2399994693697 7.10061052402844
24.2599994689226 7.13284940595148
24.2799994684756 7.17445553095129
24.2999994680285 7.18796015484763
24.3199994675815 7.17247503544438
24.3399994671345 7.16401336026512
24.3599994666874 7.14458163018943
24.3799994662404 7.12759306082646
24.3999994657934 7.18616124378325
24.4199994653463 7.21471447390278
24.4399994648993 7.21361037090883
24.4599994644523 7.18005511262323
24.4799994640052 7.20428838255117
24.4999994635582 7.26206448478718
24.5199994631112 7.27357772258573
24.5399994626641 7.23764682155463
24.5599994622171 7.17018721390722
24.5799994617701 7.13964510507937
24.599999461323 7.19469929011534
24.619999460876 7.2810061791088
24.639999460429 7.34924743052882
24.6599994599819 7.29968188053851
24.6799994595349 7.27974598834611
24.6999994590878 7.22105176107201
24.7199994586408 7.18814772581566
24.7399994581938 7.17151676486304
24.7599994577467 7.213398836524
24.7799994572997 7.20519821881794
24.7999994568527 7.17177378028317
24.8199994564056 7.16496216131807
24.8399994559586 7.16829669899317
24.8599994555116 7.18622965425416
24.8799994550645 7.21579977343354
24.8999994546175 7.28400328287293
24.9199994541705 7.24390159049967
24.9399994537234 7.15748831778419
24.9599994532764 7.09485238258211
24.9799994528294 7.12084614383011
24.9999994523823 7.19372682875247
25.0199994519353 7.28311723598612
25.0399994514883 7.37473473503777
25.0599994510412 7.33386107859384
25.0799994505942 7.29074975910487
25.0999994501472 7.25777878487233
25.1199994497001 7.28110782095334
25.1399994492531 7.25428327198267
25.159999448806 7.2329547729554
25.179999448359 7.3028326383684
25.199999447912 7.30616618087863
25.2199994474649 7.31366364104283
25.2399994470179 7.32477184645612
25.2599994465709 7.41834475744511
25.2799994461238 7.55122355155855
25.2999994456768 7.57658326272476
25.3199994452298 7.60853799713847
25.3399994447827 7.66109302201571
25.3599994443357 7.85753274132315
25.3799994438887 7.97774077669659
25.3999994434416 8.05678537097798
25.4199994429946 8.12436482346916
25.4399994425476 8.13703447122773
25.4599994421005 8.13794335730578
25.4799994416535 8.09694491438954
25.4999994412065 8.14169954033567
25.5199994407594 8.25283456049395
25.5399994403124 8.35925384710367
25.5599994398654 8.3342610966396
25.5799994394183 8.20689528052921
25.5999994389713 8.05469342421805
25.6199994385242 7.91789960863307
25.6399994380772 7.79548606518266
25.6599994376302 7.68710368284803
25.6799994371831 7.59634117225194
25.6999994367361 7.63290720405608
25.7199994362891 7.6255708923577
25.739999435842 7.58183667698782
25.759999435395 7.55288700770266
25.779999434948 7.59407683771442
25.7999994345009 7.63637666914074
25.8199994340539 7.57971750815803
25.8399994336069 7.4983327467026
25.8599994331598 7.46931997633866
25.8799994327128 7.44327900172223
25.8999994322658 7.46329647782462
25.9199994318187 7.43899066632861
25.9399994313717 7.4055396339671
25.9599994309247 7.46344960231295
25.9799994304776 7.47974990972953
25.9999994300306 7.44574925837249
26.0199994295836 7.39265655330144
26.0399994291365 7.37105018591061
26.0599994286895 7.37223786192117
26.0799994282424 7.31519046293882
26.0999994277954 7.30918443338829
26.1199994273484 7.38440168178411
26.1399994269013 7.49011581575141
26.1599994264543 7.5018693372433
26.1799994260073 7.42199619948747
26.1999994255602 7.36243110535697
26.2199994251132 7.28186108064627
26.2399994246662 7.29165634621664
26.2599994242191 7.34807995006175
26.2799994237721 7.5174500657793
26.2999994233251 7.58881178344025
26.319999422878 7.57841072189725
26.339999422431 7.5368183105272
26.359999421984 7.49685005619085
26.3799994215369 7.47146069671415
26.3999994210899 7.46242670929147
26.4199994206429 7.45004445415787
26.4399994201958 7.42233086692301
26.4599994197488 7.47292884507854
26.4799994193017 7.50175145443927
26.4999994188547 7.47971470150035
26.5199994184077 7.45834630163156
26.5399994179606 7.38068612210116
26.5599994175136 7.26146821472685
26.5799994170666 7.243769691164
26.5999994166195 7.42233484398636
26.6199994161725 7.50460264463536
26.6399994157255 7.43532322203299
26.6599994152784 7.26794951550947
26.6799994148314 7.26968924861492
26.6999994143844 7.31672655367198
26.7199994139373 7.35638982527984
26.7399994134903 7.33874036331815
26.7599994130433 7.38007237595596
26.7799994125962 7.35916195585743
26.7999994121492 7.3335582048976
26.8199994117022 7.26628264859525
26.8399994112551 7.38432132711384
26.8599994108081 7.38375506371076
26.8799994103611 7.38640384846033
26.899999409914 7.39035097154516
26.919999409467 7.36069348250433
26.9399994090199 7.27673039055964
26.9599994085729 7.16597201703367
26.9799994081259 7.19125105511859
26.9999994076788 7.13967812654807
27.0199994072318 7.18726601300887
27.0399994067848 7.23184874111291
27.0599994063377 7.30941858916955
27.0799994058907 7.30205757300734
27.0999994054437 7.32844169213308
27.1199994049966 7.36321417586809
27.1399994045496 7.39689050532921
27.1599994041026 7.38597491552326
27.1799994036555 7.33280144897102
27.1999994032085 7.24750515173035
27.2199994027615 7.2343173060803
27.2399994023144 7.29172791068534
27.2599994018674 7.36215789351931
27.2799994014204 7.36710563500117
27.2999994009733 7.3147275939708
27.3199994005263 7.33949860973544
27.3399994000793 7.39340757807814
27.3599993996322 7.4269427411341
27.3799993991852 7.38008365893163
27.3999993987381 7.36695616568291
27.4199993982911 7.4269769977139
27.4399993978441 7.50728719792393
27.459999397397 7.51232802044733
27.47999939695 7.40580904979726
27.499999396503 7.30780100611167
27.5199993960559 7.24919982499032
27.5399993956089 7.31458671183364
27.5599993951619 7.25687218321083
27.5799993947148 7.27499499268074
27.5999993942678 7.30634013542945
27.6199993938208 7.4588163204505
27.6399993933737 7.42955934364391
27.6599993929267 7.38791588173998
27.6799993924797 7.36684527457344
27.6999993920326 7.34350371090107
27.7199993915856 7.3534747559606
27.7399993911386 7.36403583550541
27.7599993906915 7.43352669087821
27.7799993902445 7.39993776882832
27.7999993897974 7.34220089751502
27.8199993893504 7.26447412973655
27.8399993889034 7.16401837498569
27.8599993884563 7.10774972583391
27.8799993880093 7.1460217624268
27.8999993875623 7.20637734447604
27.9199993871152 7.25411955342425
27.9399993866682 7.24306972172065
27.9599993862212 7.15928052387889
27.9799993857741 7.14316830585584
27.9999993853271 7.17336374502947
28.0199993848801 7.22066195983669
28.039999384433 7.22181092470373
28.059999383986 7.22968881311517
28.079999383539 7.2896650100779
28.0999993830919 7.2379848649053
28.1199993826449 7.2555066058202
28.1399993821979 7.28632581267174
28.1599993817508 7.27139481740233
28.1799993813038 7.23033171457842
28.1999993808568 7.21314029016951
28.2199993804097 7.29076768317332
28.2399993799627 7.31062555944119
28.2599993795156 7.32731647442238
28.2799993790686 7.2941619916214
28.2999993786216 7.23278206817375
28.3199993781745 7.19579079732574
28.3399993777275 7.29483930298019
28.3599993772805 7.35535464937195
28.3799993768334 7.35164375256953
28.3999993763864 7.232355736728
28.4199993759394 7.21538865076639
28.4399993754923 7.25056573383083
28.4599993750453 7.33644016369851
28.4799993745983 7.38090703307362
28.4999993741512 7.29480901037411
28.5199993737042 7.2302113510092
28.5399993732572 7.22522842875035
28.5599993728101 7.3062042209532
28.5799993723631 7.31607088798186
28.5999993719161 7.27159963809377
28.619999371469 7.23996077698196
28.639999371022 7.20932017219185
28.659999370575 7.22401938402965
28.6799993701279 7.23159440327884
28.6999993696809 7.36760907452462
28.7199993692338 7.48701959822968
28.7399993687868 7.48234346445052
28.7599993683398 7.35016745659175
28.7799993678927 7.31341131278887
28.7999993674457 7.31200547095934
28.8199993669987 7.34437121181773
28.8399993665516 7.36705296363994
28.8599993661046 7.33201280128399
28.8799993656576 7.28320455193173
28.8999993652105 7.27779474324138
28.9199993647635 7.3180182165019
28.9399993643165 7.3405386803
28.9599993638694 7.32852084809265
28.9799993634224 7.39517063836045
28.9999993629754 7.392749800571
29.0199993625283 7.48305253480438
29.0399993620813 7.4830885375899
29.0599993616343 7.51581912132569
29.0799993611872 7.49466092440047
29.0999993607402 7.51208130918029
29.1199993602932 7.48653303907419
29.1399993598461 7.45122839926651
29.1599993593991 7.48407830472179
29.179999358952 7.58735801030693
29.199999358505 7.74193509650955
29.219999358058 7.94268154973121
29.2399993576109 8.10318029365498
29.2599993571639 8.21282223984741
29.2799993567169 8.41372970824916
29.2999993562698 8.6424021304518
29.3199993558228 8.96181907764469
29.3399993553758 9.24630699932285
29.3599993549287 9.67344811595835
29.3799993544817 10.0462952767442
29.3999993540347 10.5478560372188
29.4199993535876 11.0617836450624
29.4399993531406 11.5234654886366
29.4599993526936 12.0653732713858
29.4799993522465 12.5663794400891
29.4999993517995 12.9753451832007
29.5199993513525 13.0044321259183
29.5399993509054 12.9270915201017
29.5599993504584 12.7251642393278
29.5799993500113 12.4252710774572
29.5999993495643 11.9485130979901
29.6199993491173 11.4195556153652
29.6399993486702 10.9887134354843
29.6599993482232 10.323436248037
29.6799993477762 9.87103886156498
29.6999993473291 9.49272058582863
29.7199993468821 9.27628703895031
29.7399993464351 8.91283567694241
29.759999345988 8.61270016981976
29.779999345541 8.31426393963874
29.799999345094 8.12601445457493
29.8199993446469 7.99833093830272
29.8399993441999 7.8928079803867
29.8599993437529 7.79683992372648
29.8799993433058 7.61750897427758
29.8999993428588 7.48449024544346
29.9199993424118 7.42563738826734
29.9399993419647 7.39013889878058
29.9599993415177 7.40143369181997
29.9799993410707 7.46640421133922
29.9999993406236 7.46856707502224
30.0199993401766 7.37110916967185
30.0399993397295 7.25525336231875
30.0599993392825 7.2276858462384
30.0799993388355 7.16568621387323
30.0999993383884 7.12175140916989
30.1199993379414 7.09212245644555
30.1399993374944 7.09967585575057
30.1599993370473 7.14509733539801
30.1799993366003 7.17877107457432
30.1999993361533 7.23016371037115
30.2199993357062 7.25239142166069
30.2399993352592 7.19625931553738
30.2599993348122 7.10597869764699
30.2799993343651 7.08841534945236
30.2999993339181 7.1097723608789
30.3199993334711 7.11448732789624
30.339999333024 7.09194996516285
30.359999332577 7.06153014145284
30.37999933213 7.11517503776583
30.3999993316829 7.14471033641057
30.4199993312359 7.11140406770941
30.4399993307889 7.06566442771079
30.4599993303418 7.08269741621438
30.4799993298948 7.08523499244639
30.4999993294477 7.03869667477283
30.5199993290007 7.02241434253125
30.5399993285537 6.97845776808019
30.5599993281066 6.91703850389694
30.5799993276596 6.85311122483593
30.5999993272126 6.8687458766385
30.6199993267655 6.84675939082676
30.6399993263185 6.85585206910913
30.6599993258715 6.90141850404917
30.6799993254244 6.94824898252422
30.6999993249774 6.85347906743539
30.7199993245304 6.78524380842129
30.7399993240833 6.81806563333894
30.7599993236363 6.93679694419253
30.7799993231893 6.9978936740951
30.7999993227422 6.98657602804192
30.8199993222952 6.90586363913876
30.8399993218482 6.93460542207061
30.8599993214011 6.95592135725742
30.8799993209541 6.96796240369727
30.8999993205071 6.96683831331824
30.91999932006 6.9399273240718
30.939999319613 6.99331096449864
30.9599993191659 6.94206337830418
30.9799993187189 6.92697250676125
30.9999993182719 6.8506734773061
31.0199993178248 6.76660018986795
31.0399993173778 6.73758834423735
31.0599993169308 6.71615908112679
31.0799993164837 6.76862386077655
31.0999993160367 6.8486248184097
31.1199993155897 6.93847957916027
31.1399993151426 6.94485507472604
31.1599993146956 6.88590234235017
31.1799993142486 6.8661447206835
31.1999993138015 6.84603788459591
31.2199993133545 6.87198367889534
31.2399993129075 6.8118157404812
31.2599993124604 6.78688842705512
31.2799993120134 6.83290189880257
31.2999993115664 6.88725259739509
31.3199993111193 6.94242914487245
31.3399993106723 6.87847056751886
31.3599993102252 6.84980850573865
31.3799993097782 6.81989314109169
31.3999993093312 6.8078942760617
31.4199993088841 6.85346997452737
31.4399993084371 6.91111207675964
31.4599993079901 6.91177951081566
31.479999307543 6.85962648782451
31.499999307096 6.84137331411681
31.519999306649 6.77591662909013
31.5399993062019 6.7710347036639
31.5599993057549 6.74872278556909
31.5799993053079 6.81732582209731
31.5999993048608 6.75346759771833
31.6199993044138 6.8066819796319
31.6399993039668 6.84223982767783
31.6599993035197 6.92855513430958
31.6799993030727 6.90333083664153
31.6999993026257 6.93322804853509
31.7199993021786 6.92108579915372
31.7399993017316 6.83409281426297
31.7599993012846 6.70990751047614
31.7799993008375 6.64715502180032
31.7999993003905 6.67791983700439
31.8199992999434 6.68793437710532
31.8399992994964 6.7307546925892
31.8599992990494 6.71899648671784
31.8799992986023 6.79271691369092
31.8999992981553 6.79994509730092
31.9199992977083 6.81098716167004
31.9399992972612 6.78474424558981
31.9599992968142 6.78802873549514
31.9799992963672 6.72475744789385
31.9999992959201 6.67484176604261
32.0199992954731 6.63195440751215
32.0399992950261 6.69282620271911
32.059999294579 6.67499754370201
32.079999294132 6.69018984941381
32.099999293685 6.74227717271066
32.1199992932379 6.80278008503152
32.1399992927909 6.83887256100907
32.1599992923439 6.81725359850391
32.1799992918968 6.77604960858964
32.1999992914498 6.74725866559788
32.2199992910028 6.74531169431382
32.2399992905557 6.7694562944462
32.2599992901087 6.81879309469494
32.2799992896616 6.80314194025753
32.2999992892146 6.76643874163906
32.3199992887676 6.6827512660674
32.3399992883205 6.71657425500706
32.3599992878735 6.7466186741275
32.3799992874265 6.72084093612261
32.3999992869794 6.64720326714972
32.4199992865324 6.58369203352055
32.4399992860854 6.58390197693436
32.4599992856383 6.66025655777176
32.4799992851913 6.81028025290815
32.4999992847443 6.88255265623276
32.5199992842972 6.85726009668637
32.5399992838502 6.69379878385902
32.5599992834032 6.63500120245137
32.5799992829561 6.65420323804545
32.5999992825091 6.66540524970298
32.6199992820621 6.68777874997281
32.639999281615 6.71905284583651
32.659999281168 6.84425504819466
32.6799992807209 6.94869431009275
32.6999992802739 6.91756147024254
32.7199992798269 6.94710492880962
32.7399992793798 6.95074847711788
32.7599992789328 7.05179777777524
32.7799992784858 7.09384093432214
32.7999992780387 7.24390847809529
32.8199992775917 7.35409440922679
32.8399992771447 7.48173419727521
32.8599992766976 7.61395292428166
32.8799992762506 7.82617268418047
32.8999992758036 8.04076468803606
32.9199992753565 8.30788813133904
32.9399992749095 8.57693479313093
32.9599992744625 8.84347622569144
32.9799992740154 9.16584919343223
32.9999992735684 9.38928992291397
33.0199992731214 9.53356328922991
33.0399992726743 9.56225881196969
33.0599992722273 9.57338415222396
33.0799992717803 9.60010219423255
33.0999992713332 9.64222690951161
33.1199992708862 9.55094926716861
33.1399992704391 9.33876408250483
33.1599992699921 9.0290747083121
33.1799992695451 8.6844612963944
33.199999269098 8.43419817970431
33.219999268651 8.08659791058825
33.239999268204 7.79902135140883
33.2599992677569 7.56004674488758
33.2799992673099 7.36449460164331
33.2999992668629 7.2480917649923
33.3199992664158 7.17969080447992
33.3399992659688 7.09218634003605
33.3599992655218 7.05927567374436
33.3799992650747 6.90738127354315
33.3999992646277 6.78096783393437
33.4199992641807 6.65131536149714
33.4399992637336 6.61100753533506
33.4599992632866 6.63125010675958
33.4799992628396 6.60326286596588
33.4999992623925 6.58482073958738
33.5199992619455 6.67048167815584
33.5399992614985 6.66320753984826
33.5599992610514 6.64436876440043
33.5799992606044 6.50925056163286
33.5999992601573 6.48341477831798
33.6199992597103 6.48962426619636
33.6399992592633 6.47803326642542
33.6599992588162 6.46052492191337
33.6799992583692 6.39426266424837
33.6999992579222 6.36631310112936
33.7199992574751 6.34928842965541
33.7399992570281 6.34108044761174
33.7599992565811 6.28793731449768
33.779999256134 6.27825249776761
33.799999255687 6.24536400457183
33.81999925524 6.25832859444614
33.8399992547929 6.22549007696491
33.8599992543459 6.22712055705011
33.8799992538989 6.20677482453258
33.8999992534518 6.18887543413649
33.9199992530048 6.16865617062053
33.9399992525578 6.16274954425178
33.9599992521107 6.19519168818693
33.9799992516637 6.17120543176855
33.9999992512167 6.17604443484913
34.0199992507696 6.17619358673785
34.0399992503226 6.20904183745297
34.0599992498755 6.20788164461885
34.0799992494285 6.1688615181948
34.0999992489815 6.07880103214971
34.1199992485344 6.06248286219714
34.1399992480874 6.08945271968934
34.1599992476404 6.17025450855886
34.1799992471933 6.08741737572418
34.1999992467463 6.06250291579329
34.2199992462993 6.05268971712128
34.2399992458522 6.14016616184201
34.2599992454052 6.16450067919034
34.2799992449582 6.18676279672065
34.2999992445111 6.18170186954039
34.3199992440641 6.07384637148011
34.3399992436171 6.00801586206986
34.35999924317 5.97333021105487
34.379999242723 6.00705781857187
34.399999242276 6.01998341580689
34.4199992418289 6.06979391350618
34.4399992413819 6.10144351259207
34.4599992409348 6.09751499388165
34.4799992404878 6.06736036693312
34.4999992400408 6.03277363666602
34.5199992395937 6.0292418794949
34.5399992391467 6.01243522963828
34.5599992386997 6.04887508851878
34.5799992382526 6.03586291184574
34.5999992378056 6.04200507829968
34.6199992373586 5.9225758937736
34.6399992369115 5.93109924215985
34.6599992364645 5.90584977990589
34.6799992360175 5.966053540248
34.6999992355704 5.87716860124982
34.7199992351234 5.87674061657376
34.7399992346764 5.84882017298912
34.7599992342293 5.87267080481409
34.7799992337823 5.84887590923289
34.7999992333353 5.87406125970599
34.8199992328882 5.86474753300096
34.8399992324412 5.90222846553741
34.8599992319942 5.893431773127
34.8799992315471 5.93659770654513
34.8999992311001 5.97364558073209
34.919999230653 5.99358577734439
34.939999230206 5.97029092890126
34.959999229759 6.00158706918172
34.9799992293119 6.05345472556223
34.9999992288649 6.03510247609732
35.0199992284179 6.02446250353648
35.0399992279708 5.99650062879298
35.0599992275238 6.04995783970308
35.0799992270768 6.09014864877881
35.0999992266297 6.09972664182124
35.1199992261827 6.03884416603298
35.1399992257357 5.89705627175295
35.1599992252886 5.85795741798749
35.1799992248416 5.87148224792855
35.1999992243946 5.9474523890372
35.2199992239475 5.90336699898015
35.2399992235005 5.85396977356012
35.2599992230535 5.80793301989129
35.2799992226064 5.84427231179158
35.2999992221594 5.90110227355241
35.3199992217124 5.9152188917277
35.3399992212653 5.86749086486611
35.3599992208183 5.8061728161759
35.3799992203712 5.65860476989921
35.3999992199242 5.66000392572727
35.4199992194772 5.68835537510614
35.4399992190301 5.79499065786607
35.4599992185831 5.75697261769625
35.4799992181361 5.77452233129544
35.499999217689 5.78213344124949
35.519999217242 5.79204754159677
35.539999216795 5.77387201279198
35.5599992163479 5.74171855572734
35.5799992159009 5.72830728021332
35.5999992154539 5.60652787361601
35.6199992150068 5.58403696086935
35.6399992145598 5.62121219840767
35.6599992141128 5.66188637055444
35.6799992136657 5.71913220735091
35.6999992132187 5.76128633992004
35.7199992127717 5.81414694128604
35.7399992123246 5.78570977033178
35.7599992118776 5.67220618419776
35.7799992114306 5.6645083830326
35.7999992109835 5.67376760332265
35.8199992105365 5.7848460463169
35.8399992100894 5.81544298462136
35.8599992096424 5.74575966373086
35.8799992091954 5.72479362861596
35.8999992087483 5.7224630277954
35.9199992083013 5.78807577344822
35.9399992078543 5.8399421813402
35.9599992074072 5.89464794638208
35.9799992069602 5.93679944158082
35.9999992065132 5.98784417561179
36.0199992060661 6.02574341050831
36.0399992056191 6.1696019656078
36.0599992051721 6.28316285548945
36.079999204725 6.47445844111434
36.099999204278 6.55146965415206
36.119999203831 6.57014730095302
36.1399992033839 6.60225239607851
36.1599992029369 6.74926074838038
36.1799992024899 6.88697368388797
36.1999992020428 6.92921261645871
36.2199992015958 6.86981791543861
36.2399992011487 6.77692143707598
36.2599992007017 6.75813660772402
36.2799992002547 6.68393022039816
36.2999991998076 6.62213835351156
36.3199991993606 6.44694058517077
36.3399991989136 6.33995853519001
36.3599991984665 6.2355711059369
36.3799991980195 6.20990787696542
36.3999991975725 6.11565858466864
36.4199991971254 6.02755647724431
36.4399991966784 5.85610299964462
36.4599991962314 5.75418383062229
36.4799991957843 5.76025779680897
36.4999991953373 5.82642692987844
36.5199991948903 5.78501080074097
36.5399991944432 5.74002294915788
36.5599991939962 5.6483905254868
36.5799991935492 5.53484579214979
36.5999991931021 5.43393278029062
36.6199991926551 5.39669154576014
36.6399991922081 5.41866609137645
36.659999191761 5.44976468704398
36.679999191314 5.46787190348781
36.6999991908669 5.5369967028312
36.7199991904199 5.49091591690345
36.7399991899729 5.44315996906368
36.7599991895258 5.44022360370774
36.7799991890788 5.52668837266237
36.7999991886318 5.56231382524707
36.8199991881847 5.49500046261398
36.8399991877377 5.42728397754252
36.8599991872907 5.3584823732607
36.8799991868436 5.31176270133729
36.8999991863966 5.35533311233597
36.9199991859496 5.41401128348956
36.9399991855025 5.38913609121301
36.9599991850555 5.35019662953801
36.9799991846085 5.31386265012526
36.9999991841614 5.35032194647097
37.0199991837144 5.26038838115467
37.0399991832674 5.25257886861423
37.0599991828203 5.25881077362758
37.0799991823733 5.27798291236192
37.0999991819263 5.30859071724252
37.1199991814792 5.27689363068789
37.1399991810322 5.23326264456991
37.1599991805851 5.19358430745968
37.1799991801381 5.36593757963156
37.1999991796911 5.42322189797616
37.219999179244 5.35550367469107
37.239999178797 5.2175317417217
37.25999917835 5.23218123710139
37.2799991779029 5.25784342107192
37.2999991774559 5.22547748452076
37.3199991770089 5.26170315382606
37.3399991765618 5.32416589071576
37.3599991761148 5.31783997417208
37.3799991756678 5.28109830825889
37.3999991752207 5.22687495039305
37.4199991747737 5.22559007961644
37.4399991743267 5.23370090974986
37.4599991738796 5.2673502595841
37.4799991734326 5.20967195933144
37.4999991729856 5.21394789988362
37.5199991725385 5.22605814200568
37.5399991720915 5.23450687708656
37.5599991716444 5.23807281728718
37.5799991711974 5.2233525363801
37.5999991707504 5.17107141714855
37.6199991703033 5.10251651529811
37.6399991698563 5.12903240382848
37.6599991694093 5.16141344444417
37.6799991689622 5.15456954684797
37.6999991685152 5.10996780916163
37.7199991680682 5.21799572867729
37.7399991676211 5.27897438592247
37.7599991671741 5.30794146916778
37.7799991667271 5.24998116576197
37.79999916628 5.18496790706595
37.819999165833 5.16676599034587
37.839999165386 5.18603169502596
37.8599991649389 5.19285728854517
37.8799991644919 5.18164589541781
37.8999991640449 5.14898626995644
37.9199991635978 5.15341777173221
37.9399991631508 5.17276284640235
37.9599991627038 5.2236379120856
37.9799991622567 5.19265748229805
37.9999991618097 5.1305435318572
38.0199991613626 5.04449612586823
38.0399991609156 5.06769694763947
38.0599991604686 5.13267581025416
38.0799991600215 5.23229105456775
38.0999991595745 5.19760801596285
38.1199991591275 5.08739666597777
38.1399991586804 5.02543119677344
38.1599991582334 5.03916494679403
38.1799991577864 5.05230260436376
38.1999991573393 5.02189814145577
38.2199991568923 5.03264148329879
38.2399991564453 5.07218912644335
38.2599991559982 5.10044517828863
38.2799991555512 5.14902129350239
38.2999991551042 5.19485739771366
38.3199991546571 5.19344258590228
38.3399991542101 5.07586423520039
38.3599991537631 5.00323325669654
38.379999153316 5.05915646729184
38.399999152869 5.18297416869052
38.419999152422 5.23586198789359
38.4399991519749 5.21948740003753
38.4599991515279 5.15489495606218
38.4799991510808 5.12427563256501
38.4999991506338 5.08005413759865
38.5199991501868 5.08773659149386
38.5399991497397 5.04543345860597
38.5599991492927 5.01925028711416
38.5799991488457 4.94840074568975
38.5999991483986 4.99436662244853
38.6199991479516 4.95688857275189
38.6399991475046 5.03580129613312
38.6599991470575 5.04759426213478
38.6799991466105 5.12457901871516
38.6999991461635 5.11371160647056
38.7199991457164 5.08011634803768
38.7399991452694 5.00954005098083
38.7599991448224 4.964783815525
38.7799991443753 4.971221798361
38.7999991439283 4.99614177279825
38.8199991434813 4.96261342730359
38.8399991430342 4.95467753049126
38.8599991425872 5.0216199187458
38.8799991421402 5.04772270425377
38.8999991416931 5.02443028349547
38.9199991412461 4.92867193354444
38.939999140799 4.921857863577
38.959999140352 4.90816700234686
38.979999139905 4.93622777857339
38.9999991394579 4.89076333297099
39.0199991390109 4.96888461995686
39.0399991385639 5.00748013181899
39.0599991381168 5.0641426213973
39.0799991376698 5.02229157902288
39.0999991372228 4.99580652402202
39.1199991367757 4.94945213274402
39.1399991363287 4.93453073325793
39.1599991358817 4.94589669414391
39.1799991354346 5.0051973795433
39.1999991349876 4.98825909776863
39.2199991345406 4.99477286066274
39.2399991340935 5.01982325747904
39.2599991336465 5.05487399744665
39.2799991331995 5.02411579294008
39.2999991327524 4.98768232402708
39.3199991323054 5.00148653116676
39.3399991318583 5.01732584691255
39.3599991314113 5.0296364975351
39.3799991309643 5.03358283795916
39.3999991305172 5.02278044002388
39.4199991300702 4.96217901711422
39.4399991296232 4.89649652460909
39.4599991291761 4.90308581473516
39.4799991287291 4.962692087497
39.4999991282821 4.95899170549628
39.519999127835 5.00120169108303
39.539999127388 5.12164555926155
39.559999126941 5.20932452194999
39.5799991264939 5.23645330747703
39.5999991260469 5.16411530072074
39.6199991255999 5.18195462344018
39.6399991251528 5.14766448095448
39.6599991247058 5.1329546537777
39.6799991242588 5.12975563827689
39.6999991238117 5.1548982508093
39.7199991233647 5.18524857667603
39.7399991229177 5.29790467190269
39.7599991224706 5.3072989917006
39.7799991220236 5.25393266192498
39.7999991215765 5.14073640138326
39.8199991211295 5.10114086715855
39.8399991206825 5.09830250593151
39.8599991202354 5.12514455845815
39.8799991197884 5.20302662406949
39.8999991193414 5.22896540164723
39.9199991188943 5.17274839414214
39.9399991184473 5.03701298113655
39.9599991180003 5.00676727438532
39.9799991175532 4.97458853728178
39.9999991171062 5.01940333274728
40.0199991166592 5.00350711778196
40.0399991162121 4.98840420881264
40.0599991157651 4.95536555507725
40.0799991153181 5.01156542430861
40.099999114871 5.04305018644474
40.119999114424 5.07358281155656
40.139999113977 5.03364529928461
40.1599991135299 5.04324115284899
40.1799991130829 5.0229884619594
40.1999991126359 5.01517741796672
40.2199991121888 5.00578756210163
40.2399991117418 5.04113506118035
40.2599991112947 5.1060195796748
40.2799991108477 5.16018033391579
40.2999991104007 5.10976778694245
40.3199991099536 5.06193666516675
40.3399991095066 5.02546321820628
40.3599991090596 5.08432727339643
40.3799991086125 5.0554785548817
40.3999991081655 5.08205679346166
40.4199991077185 5.06329369929766
40.4399991072714 5.10193702306895
40.4599991068244 5.08213891135553
40.4799991063774 5.09972715386425
40.4999991059303 5.15759411897692
40.5199991054833 5.24136478649985
40.5399991050363 5.27141415525555
40.5599991045892 5.21133322554377
40.5799991041422 5.18043788035178
40.5999991036952 5.24981455201707
40.6199991032481 5.32933928494084
40.6399991028011 5.29857256984367
40.6599991023541 5.23842836411487
40.679999101907 5.16784038032163
40.69999910146 5.12852281642929
40.7199991010129 5.10261085956379
40.7399991005659 5.12642805108186
40.7599991001189 5.15940658407334
40.7799990996718 5.14235542968598
40.7999990992248 5.08168534872131
40.8199990987778 5.08033418381809
40.8399990983307 5.04781846383123
40.8599990978837 5.07825463055242
40.8799990974367 5.11569049281942
40.8999990969896 5.21790920115451
40.9199990965426 5.19562403948324
40.9399990960956 5.17178418569405
40.9599990956485 5.14766784320981
40.9799990952015 5.16053221823601
40.9999990947545 5.16602213091792
41.0199990943074 5.08188450012323
41.0399990938604 5.05588366849521
41.0599990934134 4.99871133024905
41.0799990929663 5.05186474665203
41.0999990925193 5.05927814432357
41.1199990920722 5.07052861107805
41.1399990916252 5.02761498035938
41.1599990911782 5.04402409752177
41.1799990907311 5.06665049038132
41.1999990902841 5.0525731395933
41.2199990898371 4.98900146006095
41.23999908939 4.95365741757741
41.259999088943 4.92593774699293
41.279999088496 4.98327356891409
41.2999990880489 4.99730255340396
41.3199990876019 5.08284645552166
41.3399990871549 5.16382831559737
41.3599990867078 5.15639138615468
41.3799990862608 5.16810456474891
41.3999990858138 5.08698648605129
41.4199990853667 5.05485184765682
41.4399990849197 4.95004658180042
41.4599990844727 4.91132611389446
41.4799990840256 4.97780651088995
41.4999990835786 5.07767425782408
41.5199990831316 5.09298936181866
41.5399990826845 5.03129616661419
41.5599990822375 5.00390732672658
41.5799990817904 5.03691253942061
41.5999990813434 5.11143090053689
41.6199990808964 5.11900762625478
41.6399990804493 5.11349373458807
41.6599990800023 5.10086694389654
41.6799990795553 5.14016494599408
41.6999990791082 5.24363513084067
41.7199990786612 5.36159048486013
41.7399990782142 5.46851566990885
41.7599990777671 5.52209252411279
41.7799990773201 5.63027665405456
41.7999990768731 5.74123618258398
41.819999076426 5.8655992382829
41.839999075979 5.93018053579301
41.859999075532 6.1334772200552
41.8799990750849 6.29589308982825
41.8999990746379 6.52626763373157
41.9199990741909 6.68487564994806
41.9399990737438 6.88913629081567
41.9599990732968 7.03593996133799
41.9799990728498 7.08808527328747
41.9999990724027 7.07816889185741
42.0199990719557 7.07257899345709
42.0399990715086 6.99810212412676
42.0599990710616 6.97232538117384
42.0799990706146 6.88322880982694
42.0999990701675 6.90883571817084
42.1199990697205 6.71831041087207
42.1399990692735 6.50127147323649
42.1599990688264 6.27434896791226
42.1799990683794 6.15265530270841
42.1999990679324 6.06168251663248
42.2199990674853 5.90353742733661
42.2399990670383 5.74364632562985
42.2599990665913 5.59455413396645
42.2799990661442 5.49866167243976
42.2999990656972 5.48467004418731
42.3199990652502 5.49821492919843
42.3399990648031 5.45060366313945
42.3599990643561 5.37275293581256
42.3799990639091 5.32455936857407
42.399999063462 5.24250507955182
42.419999063015 5.18899799747632
42.4399990625679 5.11954753636363
42.4599990621209 5.11651571377751
42.4799990616739 5.08243721349785
42.4999990612268 5.04776437476744
42.5199990607798 5.03162784848566
42.5399990603328 5.01766387335491
42.5599990598857 4.99817169516248
42.5799990594387 5.02259838118777
42.5999990589917 4.97578752637702
42.6199990585446 4.9910021348947
42.6399990580976 4.91884132305556
42.6599990576506 4.92519250608074
42.6799990572035 4.96683595102538
42.6999990567565 5.0092280484758
42.7199990563095 5.03563962887796
42.7399990558624 4.96502873462252
42.7599990554154 4.99032447205952
42.7799990549684 4.95848085206538
42.7999990545213 4.99680087636373
42.8199990540743 4.94183098088996
42.8399990536273 4.89564075642707
42.8599990531802 4.86538049710775
42.8799990527332 4.88562495238156
42.8999990522861 4.81996017937234
42.9199990518391 4.81938685831877
42.9399990513921 4.84285861014991
42.959999050945 4.93823111489056
42.979999050498 4.96305754061891
42.999999050051 4.94328039455692
43.0199990496039 4.88857991253691
43.0399990491569 4.82561848092702
43.0599990487099 4.82891812930506
43.0799990482628 4.90142755544723
43.0999990478158 4.9298911189991
43.1199990473688 4.92386871543757
43.1399990469217 4.88332301159573
43.1599990464747 4.83390720733002
43.1799990460277 4.89702630945886
43.1999990455806 4.96471828318224
43.2199990451336 4.97997351207826
43.2399990446866 4.91497361270334
43.2599990442395 4.92545601931919
43.2799990437925 4.94119072262153
43.2999990433455 4.88959225964733
43.3199990428984 4.84491233296588
43.3399990424514 4.84268566324245
43.3599990420043 4.91071994961192
43.3799990415573 4.97731408802319
43.3999990411103 4.96009352506595
43.4199990406632 4.88342534641824
43.4399990402162 4.82168177432237
43.4599990397692 4.87091384124986
43.4799990393221 4.8896686686157
43.4999990388751 4.93632689693212
43.5199990384281 4.88807948252944
43.539999037981 4.90986630219896
43.559999037534 4.79273532070579
43.579999037087 4.76332747340779
43.5999990366399 4.72295618040015
43.6199990361929 4.80132579695531
43.6399990357459 4.8341783674804
43.6599990352988 4.80521525454942
43.6799990348518 4.76446486660276
43.6999990344048 4.77566005703632
43.7199990339577 4.8153874337196
43.7399990335107 4.82518013815268
43.7599990330637 4.83430375851322
43.7799990326166 4.79866870044213
43.7999990321696 4.7575420211411
43.8199990317225 4.75788905495109
43.8399990312755 4.75120630056578
43.8599990308285 4.75707384200248
43.8799990303814 4.76640063073275
43.8999990299344 4.87780369706429
43.9199990294874 4.94156064263848
43.9399990290403 4.90470799918697
43.9599990285933 4.82144525524515
43.9799990281463 4.8198358846011
43.9999990276992 4.8127963216345
44.0199990272522 4.79022266098829
44.0399990268052 4.75963926583877
44.0599990263581 4.74669456439615
44.0799990259111 4.76733811692659
44.0999990254641 4.70396091655002
44.119999025017 4.71003364139028
44.13999902457 4.8192830924531
44.159999024123 4.93602521937781
44.1799990236759 4.96622391209791
44.1999990232289 4.90916558525743
44.2199990227818 4.87897563360965
44.2399990223348 4.9165027515419
44.2599990218878 4.90621665410441
44.2799990214407 4.87079145958719
44.2999990209937 4.86122025314012
44.3199990205467 4.86281544224032
44.3399990200996 4.9239178697922
44.3599990196526 4.95163622475608
44.3799990192056 5.02758827162844
44.3999990187585 5.07737480052023
44.4199990183115 5.14462255869176
44.4399990178645 5.17830927616282
44.4599990174174 5.2359354591086
44.4799990169704 5.35951048186605
44.4999990165234 5.48506781065701
44.5199990160763 5.72850521824606
44.5399990156293 5.87969050733334
44.5599990151823 5.986461710751
44.5799990147352 5.96341477419834
44.5999990142882 5.95715942219865
44.6199990138412 6.01090954177846
44.6399990133941 6.05896481604837
44.6599990129471 6.06669689702124
44.6799990125 6.0392219652774
44.699999012053 5.97327735263743
44.719999011606 5.88715417557833
44.7399990111589 5.82330210905465
44.7599990107119 5.73212880818523
44.7799990102649 5.6859180286697
44.7999990098178 5.5632796854216
44.8199990093708 5.53964093109857
44.8399990089238 5.41981798688594
44.8599990084767 5.38164449465355
44.8799990080297 5.32531893297629
44.8999990075827 5.25167660701059
44.9199990071356 5.20135079607017
44.9399990066886 5.16464309813497
44.9599990062416 5.16197602010909
44.9799990057945 5.07684602602494
44.9999990053475 5.00667471048081
45.0199990049005 4.92524429077816
45.0399990044534 4.90364238504648
45.0599990040064 4.7970529237668
45.0799990035594 4.83808879561746
45.0999990031123 4.84831563191773
45.1199990026653 4.89068790900536
45.1399990022182 4.83147091883824
45.1599990017712 4.85327908157238
45.1799990013242 4.92103734675364
45.1999990008771 5.0171018728582
45.2199990004301 5.0066075316512
45.2399989999831 4.99284166160827
45.259998999536 4.89855164828347
45.279998999089 4.84002716755686
45.299998998642 4.82547267383168
45.3199989981949 4.87389877084371
45.3399989977479 4.86393924366407
45.3599989973009 4.79361989658688
45.3799989968538 4.72538139755426
45.3999989964068 4.74503799052739
45.4199989959598 4.7220032647841
45.4399989955127 4.7132659386522
45.4599989950657 4.69357521321701
45.4799989946187 4.73577964529335
45.4999989941716 4.77037604594646
45.5199989937246 4.76107345911187
45.5399989932776 4.77859087710322
45.5599989928305 4.74513078387148
45.5799989923835 4.67834385206808
45.5999989919364 4.66985056318738
45.6199989914894 4.72703574759471
45.6399989910424 4.74683180188007
45.6599989905953 4.74052861275913
45.6799989901483 4.67751935730055
45.6999989897013 4.70208531045715
45.7199989892542 4.66277614569636
45.7399989888072 4.68391135570954
45.7599989883602 4.67007135683722
45.7799989879131 4.64497600532297
45.7999989874661 4.60633994926836
45.8199989870191 4.63431069100174
45.839998986572 4.65011608504177
45.859998986125 4.66409768772773
45.879998985678 4.72125866289347
45.8999989852309 4.80248189358934
45.9199989847839 4.87469251013267
45.9399989843369 4.89191500048374
45.9599989838898 4.82746357276912
45.9799989834428 4.69524107984429
45.9999989829957 4.67771103890733
46.0199989825487 4.66789481817071
46.0399989821017 4.77917345250407
46.0599989816546 4.78704287872318
46.0799989812076 4.86502650296065
46.0999989807606 4.77889897173024
46.1199989803135 4.68745709587112
46.1399989798665 4.68976899703057
46.1599989794195 4.73924968001082
46.1799989789724 4.81321045264527
46.1999989785254 4.72500561779075
46.2199989780784 4.68304311569659
46.2399989776313 4.61872176350368
46.2599989771843 4.66541231191807
46.2799989767373 4.69685139407858
46.2999989762902 4.66963123114848
46.3199989758432 4.59858821431851
46.3399989753962 4.61196146466243
46.3599989749491 4.71552316641205
46.3799989745021 4.74780070089658
46.3999989740551 4.736720031226
46.419998973608 4.75268908364578
46.439998973161 4.79594499344093
46.4599989727139 4.76252174117173
46.4799989722669 4.696995102121
46.4999989718199 4.65214921453251
46.5199989713728 4.7229839682629
46.5399989709258 4.69613878321654
46.5599989704788 4.63736018207146
46.5799989700317 4.5640499841419
46.5999989695847 4.51438051594884
46.6199989691377 4.56286754991486
46.6399989686906 4.6288118206529
46.6599989682436 4.75533145792377
46.6799989677966 4.81746122304914
46.6999989673495 4.7950601953249
46.7199989669025 4.7082087305821
46.7399989664555 4.61683857090215
46.7599989660084 4.62246363798359
46.7799989655614 4.72604793305012
46.7999989651144 4.75355708008583
46.8199989646673 4.7547305455828
46.8399989642203 4.67626721389843
46.8599989637733 4.68237813789644
46.8799989633262 4.65998211166607
46.8999989628792 4.69098146614586
46.9199989624321 4.69792474142296
46.9399989619851 4.69882872395453
46.9599989615381 4.68907025999552
46.979998961091 4.67749095935511
46.999998960644 4.71283456955683
47.019998960197 4.79415604781486
47.0399989597499 4.88835659241737
47.0599989593029 4.90577996908414
47.0799989588559 4.85194639603132
47.0999989584088 4.75314442027061
47.1199989579618 4.69781234089226
47.1399989575148 4.67004199080892
47.1599989570677 4.72510262472467
47.1799989566207 4.76325115463647
47.1999989561737 4.7579862228455
47.2199989557266 4.73937740312839
47.2399989552796 4.71232628668003
47.2599989548326 4.76293125345656
47.2799989543855 4.69060811075864
47.2999989539385 4.71676733266655
47.3199989534914 4.63136153907778
47.3399989530444 4.70022182272616
47.3599989525974 4.60669137673997
47.3799989521503 4.63419095070171
47.3999989517033 4.67093538167432
47.4199989512563 4.74199781279173
47.4399989508092 4.76420136922965
47.4599989503622 4.69989022516538
47.4799989499152 4.71085106563655
47.4999989494681 4.67517948046862
47.5199989490211 4.67669574626152
47.5399989485741 4.62110013660751
47.559998948127 4.58966616421175
47.57999894768 4.53929393417446
47.599998947233 4.46703866740154
47.6199989467859 4.52742954237622
47.6399989463389 4.5028315132724
47.6599989458919 4.58591525927238
47.6799989454448 4.57323867569272
47.6999989449978 4.64297032959553
47.7199989445508 4.60635976301295
47.7399989441037 4.57648619673694
47.7599989436567 4.48680759859917
47.7799989432096 4.54940438087546
47.7999989427626 4.57797445436122
47.8199989423156 4.55983984076979
47.8399989418685 4.52119827528588
47.8599989414215 4.54372440362718
47.8799989409745 4.59203739273548
47.8999989405274 4.57688972978337
47.9199989400804 4.52359048016312
47.9399989396334 4.53465396731561
47.9599989391863 4.47144679425739
47.9799989387393 4.42149832007151
47.9999989382923 4.36547459205329
48.0199989378452 4.44053595998789
48.0399989373982 4.48224651416818
48.0599989369512 4.55558590063885
48.0799989365041 4.53634747663988
48.0999989360571 4.58596262575442
48.1199989356101 4.51837785707313
48.139998935163 4.55134330502914
48.159998934716 4.51385548916763
48.179998934269 4.53972063996429
48.1999989338219 4.53484461958907
48.2199989333749 4.51827528489862
48.2399989329278 4.48300069016141
48.2599989324808 4.37718627637693
48.2799989320338 4.38964376435619
48.2999989315867 4.46212053136041
48.3199989311397 4.53469489626906
48.3399989306927 4.5441833151688
48.3599989302456 4.52986648464791
48.3799989297986 4.51908119350054
48.3999989293516 4.51051149600781
48.4199989289045 4.48949709206089
48.4399989284575 4.52188118073052
48.4599989280105 4.54032936568026
48.4799989275634 4.55186521853283
48.4999989271164 4.57831581039179
48.5199989266694 4.51448512741473
48.5399989262223 4.47111500288726
48.5599989257753 4.48666514925759
48.5799989253283 4.58986473074537
48.5999989248812 4.64824697335882
48.6199989244342 4.5772501610144
48.6399989239872 4.47618565368885
48.6599989235401 4.45968967657056
48.6799989230931 4.48503394759878
48.699998922646 4.49729923210538
48.719998922199 4.46394881102752
48.739998921752 4.4088906476553
48.7599989213049 4.45879720669501
48.7799989208579 4.50383392714467
48.7999989204109 4.52726736245558
48.8199989199638 4.47278642564254
48.8399989195168 4.37431371722517
48.8599989190698 4.2967608285217
48.8799989186227 4.36380600370883
48.8999989181757 4.44526798186337
48.9199989177287 4.53575915841661
48.9399989172816 4.4820216311666
48.9599989168346 4.47116033450121
48.9799989163876 4.45056144637455
48.9999989159405 4.48397128771258
49.0199989154935 4.51134356453168
49.0399989150465 4.52491311636392
49.0599989145994 4.50303488081735
49.0799989141524 4.4320612499834
49.0999989137053 4.38514653523356
49.1199989132583 4.39638848792029
49.1399989128113 4.39967642720942
49.1599989123642 4.4601816268761
49.1799989119172 4.44433341295414
49.1999989114702 4.51113366943968
49.2199989110231 4.45630517067162
49.2399989105761 4.44214197443609
49.2599989101291 4.42944556683998
49.279998909682 4.44700769349314
49.299998909235 4.51422850721441
49.319998908788 4.47061350311629
49.3399989083409 4.51854743044149
49.3599989078939 4.49997914684713
49.3799989074469 4.57288842720288
49.3999989069998 4.50443965884924
49.4199989065528 4.42876105786277
49.4399989061058 4.35922893418693
49.4599989056587 4.43309557967139
49.4799989052117 4.49402338986149
49.4999989047647 4.52589876235487
49.5199989043176 4.45967137625491
49.5399989038706 4.36762811590592
49.5599989034235 4.27601742555112
49.5799989029765 4.26466446276821
49.5999989025295 4.30395739872577
49.6199989020824 4.36752585054458
49.6399989016354 4.40307720028669
49.6599989011884 4.46427958104137
49.6799989007413 4.51570878793597
49.6999989002943 4.49496005257104
49.7199988998473 4.42921400259997
49.7399988994002 4.31952584456333
49.7599988989532 4.33935765521022
49.7799988985062 4.42794551639757
49.7999988980591 4.49156657084714
49.8199988976121 4.49699026242476
49.8399988971651 4.44854622425146
49.859998896718 4.457069348307
49.879998896271 4.4088596475531
49.899998895824 4.41743512141152
49.9199988953769 4.3631804026923
49.9399988949299 4.42730888600919
49.9599988944829 4.40817878605756
49.9799988940358 4.44350047337362
49.9999988935888 4.37845848040725
50.0199988931417 4.35457545611441
50.0399988926947 4.39041383997178
50.0599988922477 4.43098660560226
50.0799988918006 4.50443538142934
50.0999988913536 4.53230267424909
50.1199988909066 4.44018110585291
50.1399988904595 4.31146863763472
50.1599988900125 4.2264148767863
50.1799988895655 4.26711360679671
50.1999988891184 4.27703739451383
50.2199988886714 4.3018239512317
50.2399988882244 4.30431826316341
50.2599988877773 4.39953225179801
50.2799988873303 4.40890411882307
50.2999988868833 4.37686806759832
50.3199988864362 4.26156265669496
50.3399988859892 4.19961033772345
50.3599988855422 4.25476843464726
50.3799988850951 4.33604157064506
50.3999988846481 4.3199310063128
50.4199988842011 4.34362912474168
50.439998883754 4.34232811236723
50.459998883307 4.39847502505076
50.4799988828599 4.31168666994571
50.4999988824129 4.31590466370809
50.5199988819659 4.3014105557331
50.5399988815188 4.38276996600325
50.5599988810718 4.36073518275278
50.5799988806248 4.35242845824177
50.5999988801777 4.32459180995973
50.6199988797307 4.2610599059672
50.6399988792837 4.30694646677601
50.6599988788366 4.37110881855784
50.6799988783896 4.46221397775868
50.6999988779426 4.43583168819002
50.7199988774955 4.35705991390536
50.7399988770485 4.36984312362419
50.7599988766015 4.37182973908698
50.7799988761544 4.43662802320185
50.7999988757074 4.40979458893284
50.8199988752604 4.40209972422675
50.8399988748133 4.30959280176857
50.8599988743663 4.28095075898259
50.8799988739192 4.26704133222907
50.8999988734722 4.38990416452523
50.9199988730252 4.43402342655855
50.9399988725781 4.45405290854714
50.9599988721311 4.3465978768828
50.9799988716841 4.33291986344357
50.999998871237 4.30576397825829
51.01999887079 4.27230284813635
51.039998870343 4.28057706028512
51.0599988698959 4.38527529204486
51.0799988694489 4.44989876820898
51.0999988690019 4.47655093455292
51.1199988685548 4.39230438570804
51.1399988681078 4.40643321903716
51.1599988676608 4.40933034120605
51.1799988672137 4.38180498855688
51.1999988667667 4.31191237849087
51.2199988663197 4.29249029774792
51.2399988658726 4.27222101544822
51.2599988654256 4.27421316121651
51.2799988649786 4.21079140669128
51.2999988645315 4.2557982706319
51.3199988640845 4.29247509485014
51.3399988636374 4.36703190184609
51.3599988631904 4.39045767931175
51.3799988627434 4.42329868053292
51.3999988622963 4.4155045858323
51.4199988618493 4.37751632575803
51.4399988614023 4.34794240829017
51.4599988609552 4.40331226996432
51.4799988605082 4.35881065099583
51.4999988600612 4.34979042171555
51.5199988596141 4.252041102306
51.5399988591671 4.28159048265401
51.5599988587201 4.34981304905964
51.579998858273 4.33398365229582
51.599998857826 4.28750359448805
51.619998857379 4.22995338976531
51.6399988569319 4.31694286876197
51.6599988564849 4.44249520418964
51.6799988560379 4.44857219693649
51.6999988555908 4.50078775879417
51.7199988551438 4.55793790612775
51.7399988546968 4.56685484866086
51.7599988542497 4.54620487525456
51.7799988538027 4.54042208420892
51.7999988533556 4.57753671104101
51.8199988529086 4.59475228244552
51.8399988524616 4.60595268410346
51.8599988520145 4.62464351253119
51.8799988515675 4.59857549952646
51.8999988511205 4.62088922206729
51.9199988506734 4.67255046933452
51.9399988502264 4.70343301472362
51.9599988497794 4.69628550278449
51.9799988493323 4.64004206419608
51.9999988488853 4.69914486165132
52.0199988484383 4.71190884294796
52.0399988479912 4.65624234822584
52.0599988475442 4.55523476752008
52.0799988470972 4.43183989276725
52.0999988466501 4.46635354734607
52.1199988462031 4.45666052346212
52.1399988457561 4.52940803113263
52.159998845309 4.5614380422416
52.179998844862 4.55520079346034
52.1999988444149 4.44660071353698
52.2199988439679 4.28044322314821
52.2399988435209 4.2435379864792
52.2599988430738 4.29485340948876
52.2799988426268 4.44614387644516
52.2999988421798 4.49881294414415
52.3199988417327 4.41886470516833
52.3399988412857 4.33994359060063
52.3599988408387 4.27839656452034
52.3799988403916 4.31350612541064
52.3999988399446 4.30847114602548
52.4199988394976 4.29112194908784
52.4399988390505 4.33467821265474
52.4599988386035 4.37637069636722
52.4799988381565 4.40224405891823
52.4999988377094 4.3388556396801
52.5199988372624 4.30897403593918
52.5399988368154 4.33737274929496
52.5599988363683 4.36435975858373
52.5799988359213 4.34607488844994
52.5999988354743 4.29046061821973
52.6199988350272 4.28319456877906
52.6399988345802 4.29079022245981
52.6599988341331 4.35586193852009
52.6799988336861 4.35591824613411
52.6999988332391 4.3945655612174
52.719998832792 4.34416329965143
52.739998832345 4.39917715939086
52.759998831898 4.37037268319194
52.7799988314509 4.42121162782064
52.7999988310039 4.36264807602171
52.8199988305569 4.32635845618193
52.8399988301098 4.37780672024215
52.8599988296628 4.37582712948315
52.8799988292158 4.39030860875352
52.8999988287687 4.30641255606272
52.9199988283217 4.30570611678667
52.9399988278747 4.32167460892665
52.9599988274276 4.29601833784421
52.9799988269806 4.22051333822941
52.9999988265336 4.15921706521083
53.0199988260865 4.12948446196101
53.0399988256395 4.15401204854455
53.0599988251925 4.19407631005609
53.0799988247454 4.28803081354768
53.0999988242984 4.32548554022541
53.1199988238513 4.31229590327582
53.1399988234043 4.22987893506552
53.1599988229573 4.19979331528455
53.1799988225102 4.24568118422612
53.1999988220632 4.31688742738739
53.2199988216162 4.39408276827211
53.2399988211691 4.38122513952845
53.2599988207221 4.30975102523839
53.2799988202751 4.26663948203633
53.299998819828 4.24484608066592
53.319998819381 4.22290238810854
53.339998818934 4.22459132378654
53.3599988184869 4.19238980783963
53.3799988180399 4.27826142239485
53.3999988175929 4.34115642033717
53.4199988171458 4.3899236092681
53.4399988166988 4.41830307946631
53.4599988162518 4.35032129964648
53.4799988158047 4.39063147187906
53.4999988153577 4.32409302589428
53.5199988149107 4.3160995835042
53.5399988144636 4.33819416064172
53.5599988140166 4.31110033206499
53.5799988135695 4.3342627065685
53.5999988131225 4.29244804875811
53.6199988126755 4.36947928905383
53.6399988122284 4.41905525174259
53.6599988117814 4.42857404651931
53.6799988113344 4.3927728399869
53.6999988108873 4.31697016621258
53.7199988104403 4.24668047243071
53.7399988099933 4.24603956200251
53.7599988095462 4.28811142640802
53.7799988090992 4.31576744470692
53.7999988086522 4.30462605792116
53.8199988082051 4.2630133329703
53.8399988077581 4.23230672129918
53.8599988073111 4.18714997336233
53.879998806864 4.21627858069875
53.899998806417 4.27396001771449
53.91999880597 4.33307767024536
53.9399988055229 4.28989885969195
53.9599988050759 4.23831079021625
53.9799988046288 4.18372304172156
53.9999988041818 4.2282745117875
54.0199988037348 4.31353221724064
54.0399988032877 4.3701426376377
54.0599988028407 4.36452338264291
54.0799988023937 4.38510999918924
54.0999988019466 4.49032804538735
54.1199988014996 4.60063891717686
54.1399988010526 4.59522654224643
54.1599988006055 4.4976522574137
54.1799988001585 4.4586146973639
54.1999987997115 4.42775598087856
54.2199987992644 4.5028317959704
54.2399987988174 4.49131301444223
54.2599987983704 4.48775011788206
54.2799987979233 4.49382848638706
54.2999987974763 4.42696297226088
54.3199987970293 4.36095362951226
54.3399987965822 4.28053754677605
54.3599987961352 4.30189624496535
54.3799987956882 4.37097924368712
54.3999987952411 4.37168203331046
54.4199987947941 4.34752559174153
54.439998794347 4.28969457486007
54.4599987939 4.21722981177647
54.479998793453 4.25419878136661
54.4999987930059 4.27489399775531
54.5199987925589 4.36266186492035
54.5399987921119 4.34119004517382
54.5599987916648 4.29229695341864
54.5799987912178 4.23434153897405
54.5999987907708 4.22320679727515
54.6199987903237 4.23039877220153
54.6399987898767 4.27500867223463
54.6599987894297 4.29793098438604
54.6799987889826 4.2904246037397
54.6999987885356 4.25392307109519
54.7199987880886 4.2180925945189
54.7399987876415 4.22115688532877
54.7599987871945 4.20877975918561
54.7799987867475 4.18691141745627
54.7999987863004 4.20091245684625
54.8199987858534 4.24184319932229
54.8399987854064 4.24443176961864
54.8599987849593 4.27152127510077
54.8799987845123 4.20975822150664
54.8999987840652 4.24074055542196
54.9199987836182 4.23191139265173
54.9399987831712 4.22520070144742
54.9599987827241 4.13875408491243
54.9799987822771 4.04699048874072
54.9999987818301 4.10063836994182
55.019998781383 4.18163832227288
55.039998780936 4.22047831804856
55.059998780489 4.2268424654066
55.0799987800419 4.27695836782521
55.0999987795949 4.31487845195174
55.1199987791479 4.25217007896373
55.1399987787008 4.16074903618238
55.1599987782538 4.15944390491358
55.1799987778068 4.18097499346273
55.1999987773597 4.17931309637598
55.2199987769127 4.15216690611194
55.2399987764657 4.14519724502092
55.2599987760186 4.17093431394063
55.2799987755716 4.22724767063015
55.2999987751246 4.30763865195793
55.3199987746775 4.32192131713525
55.3399987742305 4.28504692684149
55.3599987737834 4.2580505280248
55.3799987733364 4.25817619465273
55.3999987728894 4.3224425411912
55.4199987724423 4.37223262427242
55.4399987719953 4.40246494897251
55.4599987715483 4.41472757751513
55.4799987711012 4.31818212802368
55.4999987706542 4.28967770583785
55.5199987702072 4.46066649836066
55.5399987697601 4.62950286247109
55.5599987693131 4.71158306175832
55.5799987688661 4.54216804810907
55.599998768419 4.47387638667645
55.619998767972 4.4086569014878
55.639998767525 4.39407014932124
55.6599987670779 4.41043365733439
55.6799987666309 4.49567552027613
55.6999987661839 4.58974265530304
55.7199987657368 4.5466938592249
55.7399987652898 4.48299639752418
55.7599987648427 4.44912385980605
55.7799987643957 4.46619473761092
55.7999987639487 4.476902736758
55.8199987635016 4.42266452135845
55.8399987630546 4.56117419787043
55.8599987626076 4.64325938921011
55.8799987621605 4.68980845304976
55.8999987617135 4.62000472284041
55.9199987612665 4.5995378186397
55.9399987608194 4.5459594459643
55.9599987603724 4.57290976018295
55.9799987599254 4.6302222541352
55.9999987594783 4.71981003556662
56.0199987590313 4.60971305929921
56.0399987585843 4.47302472724544
56.0599987581372 4.47515343788554
56.0799987576902 4.56290964682285
56.0999987572432 4.61064725561985
56.1199987567961 4.67713766617011
56.1399987563491 4.67375973567445
56.1599987559021 4.82594122246325
56.179998755455 4.70084080317972
56.199998755008 4.70259411355265
56.2199987545609 4.64635008116994
56.2399987541139 4.62943915582639
56.2599987536669 4.6140586452204
56.2799987532198 4.65906637209772
56.2999987527728 4.81343310351664
56.3199987523258 4.78887742528212
56.3399987518787 4.72401287159488
56.3599987514317 4.67777898043581
56.3799987509847 4.70052597529121
56.3999987505376 4.89520403728374
56.4199987500906 5.04071890032598
56.4399987496436 5.059372411756
56.4599987491965 4.95773347531474
56.4799987487495 4.9317606687639
56.4999987483025 5.01066561343001
56.5199987478554 5.02193416005998
56.5399987474084 4.94602128816075
56.5599987469614 4.76528484686538
56.5799987465143 4.76502582680592
56.5999987460673 4.8632875339894
56.6199987456203 5.00564125501498
56.6399987451732 5.1803358354085
56.6599987447262 5.61024401446732
56.6799987442791 5.73678173073425
56.6999987438321 5.48621849559151
56.7199987433851 5.07183324645554
56.739998742938 5.3193335465666
56.759998742491 5.54790455957351
56.779998742044 5.09549639421866
56.7999987415969 4.88288746020251
56.8199987411499 5.29584391617093
56.8399987407029 6.80479210556037
56.8599987402558 8.09266034154042
56.8799987398088 7.8477419865542
56.8999987393618 6.64757239884217
