'Id: "" Comment: "Integrate frame 2018_8-7 FAGACs_1p25FASCN001.gfrmwith cursor Full Frame Cursor #2" Operator: "MAF user" Anode: "Cu" Scantype: "TwoTheta" TimePerStep: "90" 
10.7399997711182 7.04168183258562
10.7599997706711 6.46129568149716
10.7799997702241 6.35249705475962
10.7999997697771 6.36304827865095
10.81999976933 6.06377553572741
10.839999768883 5.91239758422675
10.859999768436 5.76195417447325
10.8799997679889 5.44715735168868
10.8999997675419 5.33730155567011
10.9199997670949 5.35947625973923
10.9399997666478 5.11349388734958
10.9599997662008 4.80421123696112
10.9799997657537 4.6515778806089
10.9999997653067 4.76546283652228
11.0199997648597 4.92452596248906
11.0399997644126 4.84366763337455
11.0599997639656 4.62688230784828
11.0799997635186 4.57976455327635
11.0999997630715 4.53672139478673
11.1199997626245 4.71133074518594
11.1399997621775 4.78550001195464
11.1599997617304 4.93710034829889
11.1799997612834 4.90967477325049
11.1999997608364 4.77566546586075
11.2199997603893 4.73007153732944
11.2399997599423 4.87446058063204
11.2599997594953 4.87624982945969
11.2799997590482 4.76098759457807
11.2999997586012 4.72996760865548
11.3199997581542 4.86644828847134
11.3399997577071 4.90725028886215
11.3599997572601 4.75102243848755
11.379999756813 4.62422526466537
11.399999756366 4.64484617120426
11.419999755919 4.95859090278661
11.4399997554719 5.15065319475769
11.4599997550249 5.23124557941551
11.4799997545779 5.93551835455915
11.4999997541308 6.43822666816974
11.5199997536838 6.59569996752683
11.5399997532368 6.8778272105828
11.5599997527897 6.96333659958801
11.5799997523427 6.89111529978008
11.5999997518957 6.14212233525298
11.6199997514486 5.55530055614483
11.6399997510016 5.29659901653124
11.6599997505546 5.05735072108076
11.6799997501075 4.90123444395286
11.6999997496605 4.85623892135877
11.7199997492135 4.74225692878617
11.7399997487664 4.73721825759887
11.7599997483194 4.83272411503266
11.7799997478724 4.82184447994406
11.7999997474253 4.7443300678605
11.8199997469783 4.69659236235079
11.8399997465312 4.72682338400357
11.8599997460842 4.78365226000973
11.8799997456372 4.88496432006585
11.8999997451901 4.82862421816362
11.9199997447431 4.70079720533984
11.9399997442961 4.55849917865801
11.959999743849 4.55909383521677
11.979999743402 4.53388582101523
11.999999742955 4.5776875368394
12.0199997425079 4.64203846263283
12.0399997420609 4.77022191938469
12.0599997416139 4.83311665347883
12.0799997411668 4.78188239058301
12.0999997407198 4.79028728476097
12.1199997402728 4.73433061218749
12.1399997398257 4.66428476235224
12.1599997393787 4.55047910045858
12.1799997389317 4.5403266941277
12.1999997384846 4.67082011722092
12.2199997380376 4.74066965615818
12.2399997375906 4.81098217501886
12.2599997371435 4.78339545550254
12.2799997366965 4.82956795577314
12.2999997362494 4.68462088647543
12.3199997358024 4.69503827670085
12.3399997353554 4.69068767784217
12.3599997349083 4.72269864325793
12.3799997344613 4.63575464393814
12.3999997340143 4.64500729830233
12.4199997335672 4.63729432140276
12.4399997331202 4.6559636496091
12.4599997326732 4.70017453619555
12.4799997322261 4.73568704612847
12.4999997317791 4.79918592178742
12.5199997313321 4.8425424050246
12.539999730885 4.80931206585357
12.559999730438 4.76554372049148
12.579999729991 4.8230064355531
12.5999997295439 4.93225331826304
12.6199997290969 4.99061221849029
12.6399997286499 5.0129551604219
12.6599997282028 4.98077824606055
12.6799997277558 5.00083490767673
12.6999997273088 5.08886795980756
12.7199997268617 5.16025687917068
12.7399997264147 5.25986493594106
12.7599997259676 5.50627295120249
12.7799997255206 5.50150041296706
12.7999997250736 5.54961036544793
12.8199997246265 6.0362916608434
12.8399997241795 6.11225455848845
12.8599997237325 6.41041790029074
12.8799997232854 7.85649103278891
12.8999997228384 8.12737190434021
12.9199997223914 8.35166302415904
12.9399997219443 10.1942302266635
12.9599997214973 10.5079578487738
12.9799997210503 10.7074273158405
12.9999997206032 11.8700901903098
13.0199997201562 12.0265086829349
13.0399997197092 11.9921768929209
13.0599997192621 11.4865757841763
13.0799997188151 11.1226300565241
13.0999997183681 10.8582449219044
13.119999717921 9.08428579891083
13.139999717474 8.83923070786406
13.1599997170269 8.73714593682857
13.1799997165799 7.14493124818202
13.1999997161329 6.73307442829927
13.2199997156858 6.60039709796969
13.2399997152388 5.72511271167295
13.2599997147918 5.59943804251961
13.2799997143447 5.58192436521689
13.2999997138977 5.23079652858247
13.3199997134507 5.15182043081798
13.3399997130036 5.13855382622926
13.3599997125566 4.98726687720043
13.3799997121096 4.93456688713759
13.3999997116625 4.88967729221363
13.4199997112155 4.88501261819548
13.4399997107685 4.9197701483555
13.4599997103214 4.95695510560454
13.4799997098744 4.91267120025564
13.4999997094274 4.87903865758777
13.5199997089803 4.90534198533171
13.5399997085333 4.85382844739032
13.5599997080863 4.76415626442513
13.5799997076392 4.66229700210305
13.5999997071922 4.68617328081648
13.6199997067451 4.73624577450426
13.6399997062981 4.80779956996369
13.6599997058511 4.87103959400198
13.679999705404 4.89347753132512
13.699999704957 4.79268040444785
13.71999970451 4.6368649800596
13.7399997040629 4.56439614489465
13.7599997036159 4.67138847128923
13.7799997031689 4.73808610171662
13.7999997027218 4.79951631020612
13.8199997022748 4.79782413716587
13.8399997018278 4.72855010092508
13.8599997013807 4.62889815062049
13.8799997009337 4.62675611993393
13.8999997004867 4.64135287063659
13.9199997000396 4.74824443226065
13.9399996995926 4.80519361757785
13.9599996991456 4.79926766392489
13.9799996986985 4.67970183854571
13.9999996982515 4.6259150761807
14.0199996978045 4.61082040154207
14.0399996973574 4.54848070384317
14.0599996969104 4.48834333037095
14.0799996964633 4.57704079087471
14.0999996960163 4.76537508092646
14.1199996955693 4.79233224669062
14.1399996951222 4.77043309672904
14.1599996946752 4.72951911827779
14.1799996942282 4.77322168354733
14.1999996937811 4.81995222865462
14.2199996933341 4.87675589231288
14.2399996928871 4.81145492833307
14.25999969244 4.76450786727568
14.279999691993 4.82469346754539
14.299999691546 4.88311500346861
14.3199996910989 4.93110296388947
14.3399996906519 4.90033296516233
14.3599996902049 4.86895578591661
14.3799996897578 4.84145365358233
14.3999996893108 4.93941945526323
14.4199996888638 4.98936221086201
14.4399996884167 5.00978607467196
14.4599996879697 5.04379198269632
14.4799996875226 5.16019621111933
14.4999996870756 5.28632033511199
14.5199996866286 5.39400323147865
14.5399996861815 5.40821421414512
14.5599996857345 5.47139418044174
14.5799996852875 5.87738089687797
14.5999996848404 6.30275646330244
14.6199996843934 6.92100013163726
14.6399996839464 8.35539314583332
14.6599996834993 10.3703983172223
14.6799996830523 13.1189373349755
14.6999996826053 19.8195337973545
14.7199996821582 24.3753757850159
14.7399996817112 27.3267182732229
14.7599996812642 29.9757850473669
14.7799996808171 29.8393162433499
14.7999996803701 28.4931600025628
14.8199996799231 23.1291585640796
14.839999679476 18.8766871101899
14.859999679029 15.4619891697851
14.879999678582 10.8829882700446
14.8999996781349 8.25428989221061
14.9199996776879 6.90920348493548
14.9399996772408 5.90512415492102
14.9599996767938 5.46247821915297
14.9799996763468 5.31481109250968
14.9999996758997 5.19216113121943
15.0199996754527 5.10398008386165
15.0399996750057 4.98944137563942
15.0599996745586 4.93792460294498
15.0799996741116 4.91746993025058
15.0999996736646 4.92242255552926
15.1199996732175 4.87657866217468
15.1399996727705 4.81600336194098
15.1599996723235 4.76006932233318
15.1799996718764 4.71352835516019
15.1999996714294 4.78437846088942
15.2199996709824 4.85222654922987
15.2399996705353 4.88139155875681
15.2599996700883 4.85697182459307
15.2799996696413 4.8473329621325
15.2999996691942 4.85086583787297
15.3199996687472 4.81431809923923
15.3399996683002 4.80166260057011
15.3599996678531 4.83938985528449
15.3799996674061 4.83537145446248
15.399999666959 4.79140545432638
15.419999666512 4.70706356765557
15.439999666065 4.71518883061505
15.4599996656179 4.76734360016801
15.4799996651709 4.81657000021613
15.4999996647239 4.81696458436805
15.5199996642768 4.7689715400373
15.5399996638298 4.74224373197166
15.5599996633828 4.75363688030296
15.5799996629357 4.76769735232706
15.5999996624887 4.79096319585552
15.6199996620417 4.8534152382879
15.6399996615946 4.86596281543714
15.6599996611476 4.87131447929138
15.6799996607006 4.83679374845109
15.6999996602535 4.82617603336749
15.7199996598065 4.79604730737683
15.7399996593595 4.76465761626866
15.7599996589124 4.73742921083649
15.7799996584654 4.78638184539863
15.7999996580184 4.84471770139002
15.8199996575713 4.87674869638572
15.8399996571243 4.83338191270212
15.8599996566772 4.78159327047017
15.8799996562302 4.71644338899649
15.8999996557832 4.68844566431541
15.9199996553361 4.77550249737944
15.9399996548891 4.83011201077442
15.9599996544421 4.84389623252695
15.979999653995 4.8417558253754
15.999999653548 4.8501184089762
16.019999653101 4.85161680536017
16.0399996526539 4.81625920564061
16.0599996522069 4.77130558647328
16.0799996517599 4.75252480388488
16.0999996513128 4.73720982461905
16.1199996508658 4.72621272947455
16.1399996504188 4.70045965877637
16.1599996499717 4.69504603556286
16.1799996495247 4.66957063337454
16.1999996490777 4.66029611003667
16.2199996486306 4.74887636788936
16.2399996481836 4.8245957592531
16.2599996477365 4.79626477986193
16.2799996472895 4.74622737765667
16.2999996468425 4.76508305564016
16.3199996463954 4.8394773779768
16.3399996459484 4.81742093162913
16.3599996455014 4.81459859144827
16.3799996450543 4.78928386504082
16.3999996446073 4.79977141760383
16.4199996441603 4.7647021032601
16.4399996437132 4.75449957426139
16.4599996432662 4.81681341459467
16.4799996428192 4.86446586581385
16.4999996423721 4.82124645362475
16.5199996419251 4.84685985078383
16.5399996414781 4.88972577553707
16.559999641031 4.91645095195591
16.579999640584 4.86248175387153
16.599999640137 4.83951335428432
16.6199996396899 4.83371472553851
16.6399996392429 4.9006798081138
16.6599996387959 4.97585590822503
16.6799996383488 4.98385395661808
16.6999996379018 4.92004143009477
16.7199996374547 4.87250616372219
16.7399996370077 4.93582706449981
16.7599996365607 5.00322650223138
16.7799996361136 5.02155743891292
16.7999996356666 4.97861562626763
16.8199996352196 4.9571902607929
16.8399996347725 4.9302587728838
16.8599996343255 4.96829683818134
16.8799996338785 5.02275680508908
16.8999996334314 5.0049572870114
16.9199996329844 4.99163313469272
16.9399996325374 4.97445959864914
16.9599996320903 4.92954860704739
16.9799996316433 4.91293781021953
16.9999996311963 4.88399017579999
17.0199996307492 4.95606336301707
17.0399996303022 4.99296349225154
17.0599996298552 5.03535740729117
17.0799996294081 5.00912776790801
17.0999996289611 4.96924979941499
17.1199996285141 4.93766346361577
17.139999628067 4.92535142122312
17.15999962762 4.90225804565524
17.1799996271729 4.91159591046609
17.1999996267259 4.90533226899314
17.2199996262789 4.86489089823619
17.2399996258318 4.83865756351513
17.2599996253848 4.86017788187741
17.2799996249378 4.90224600565802
17.2999996244907 4.92929265452099
17.3199996240437 4.96658781830635
17.3399996235967 5.02641205221095
17.3599996231496 5.0095216245633
17.3799996227026 4.96655128976319
17.3999996222556 4.91826533802422
17.4199996218085 4.92417978609455
17.4399996213615 4.93142634283438
17.4599996209145 4.95449545504123
17.4799996204674 4.97237795012843
17.4999996200204 5.02503248430431
17.5199996195734 5.02170083752117
17.5399996191263 4.98037847184659
17.5599996186793 4.97757927774056
17.5799996182323 5.03232732996236
17.5999996177852 5.06020600557921
17.6199996173382 5.0148916608714
17.6399996168911 5.02426201081064
17.6599996164441 5.02179647263891
17.6799996159971 5.02498658193364
17.69999961555 5.01078029320975
17.719999615103 5.04043797674624
17.739999614656 5.02820058888309
17.7599996142089 5.03319374423512
17.7799996137619 5.07565588908694
17.7999996133149 5.14524426908796
17.8199996128678 5.16061035427542
17.8399996124208 5.13377804661173
17.8599996119738 5.12149839434821
17.8799996115267 5.1123933405031
17.8999996110797 5.12197172742717
17.9199996106327 5.1545397585994
17.9399996101856 5.21277764843903
17.9599996097386 5.29531321862892
17.9799996092916 5.30157722168003
17.9999996088445 5.22528703093887
18.0199996083975 5.14773365424801
18.0399996079504 5.14049823282238
18.0599996075034 5.14018994067152
18.0799996070564 5.13178796247796
18.0999996066093 5.14778292569794
18.1199996061623 5.13167327112022
18.1399996057153 5.13435463178742
18.1599996052682 5.15225169729406
18.1799996048212 5.16778553597144
18.1999996043742 5.19625369384076
18.2199996039271 5.19881534334491
18.2399996034801 5.17871180085248
18.2599996030331 5.18711391040687
18.279999602586 5.25484549659705
18.299999602139 5.30381362454527
18.319999601692 5.25584261637023
18.3399996012449 5.22683125446851
18.3599996007979 5.24578143462971
18.3799996003509 5.24259328102971
18.3999995999038 5.22975186696985
18.4199995994568 5.1745406997178
18.4399995990098 5.14743021436567
18.4599995985627 5.14766536427293
18.4799995981157 5.14362706832565
18.4999995976686 5.1828428112231
18.5199995972216 5.25250964412637
18.5399995967746 5.29024979958235
18.5599995963275 5.26204427692089
18.5799995958805 5.24106523022136
18.5999995954335 5.23003913186943
18.6199995949864 5.2682181355807
18.6399995945394 5.28393146751053
18.6599995940924 5.27435556727982
18.6799995936453 5.25183986313136
18.6999995931983 5.2130156677782
18.7199995927513 5.26895205468594
18.7399995923042 5.28117597213156
18.7599995918572 5.32165170889353
18.7799995914102 5.35821081766605
18.7999995909631 5.41897422412364
18.8199995905161 5.40721509440291
18.8399995900691 5.36234859671642
18.859999589622 5.32424201107121
18.879999589175 5.31552912450229
18.899999588728 5.32421623120103
18.9199995882809 5.31805045356388
18.9399995878339 5.29782616468431
18.9599995873868 5.30953066544529
18.9799995869398 5.38875615160752
18.9999995864928 5.40528568983931
19.0199995860457 5.41380628106108
19.0399995855987 5.44954364191319
19.0599995851517 5.51014597404768
19.0799995847046 5.49551767779242
19.0999995842576 5.43410657238675
19.1199995838106 5.40893392730958
19.1399995833635 5.41444893512797
19.1599995829165 5.49123647976345
19.1799995824695 5.54511149106018
19.1999995820224 5.51032157889524
19.2199995815754 5.46632725987991
19.2399995811284 5.45796572920123
19.2599995806813 5.43911403673379
19.2799995802343 5.38828532432844
19.2999995797873 5.3840905588594
19.3199995793402 5.42796447532551
19.3399995788932 5.57443477324323
19.3599995784462 5.68661589616775
19.3799995779991 5.66822670285217
19.3999995775521 5.53849572708607
19.419999577105 5.45791126472792
19.439999576658 5.49466958714996
19.459999576211 5.54794024105176
19.4799995757639 5.62703802656809
19.4999995753169 5.63056153366263
19.5199995748699 5.64500361738621
19.5399995744228 5.67201248153338
19.5599995739758 5.69335440925678
19.5799995735288 5.71638460711364
19.5999995730817 5.72396438569919
19.6199995726347 5.71952559566261
19.6399995721877 5.73031644759781
19.6599995717406 5.7386392492081
19.6799995712936 5.77232031546645
19.6999995708466 5.74199693123485
19.7199995703995 5.73203586855592
19.7399995699525 5.69888487209506
19.7599995695055 5.7038378442299
19.7799995690584 5.75462967013578
19.7999995686114 5.76511656508657
19.8199995681643 5.81593462375857
19.8399995677173 5.82523444880796
19.8599995672703 5.83325313589268
19.8799995668232 5.80125900791453
19.8999995663762 5.77672080554697
19.9199995659292 5.75043746833873
19.9399995654821 5.74523672892373
19.9599995650351 5.76524085352739
19.9799995645881 5.85735893650616
19.999999564141 5.86662114880185
20.019999563694 5.86265543917587
20.039999563247 5.85309269530754
20.0599995627999 5.87036626724905
20.0799995623529 5.81075593616607
20.0999995619059 5.75148999624779
20.1199995614588 5.77100538361412
20.1399995610118 5.80577791423793
20.1599995605648 5.83346518219555
20.1799995601177 5.8781057169453
20.1999995596707 5.92331162005763
20.2199995592237 5.92284437138285
20.2399995587766 5.90708627443364
20.2599995583296 5.87939397575695
20.2799995578825 5.90491272041446
20.2999995574355 5.9234678325497
20.3199995569885 5.96312171291158
20.3399995565414 5.96376275762361
20.3599995560944 5.95934671551162
20.3799995556474 5.96555975635018
20.3999995552003 5.99369920785646
20.4199995547533 5.98456831550854
20.4399995543063 5.91733586938293
20.4599995538592 5.92515505972553
20.4799995534122 5.96909858603958
20.4999995529652 6.03580394020438
20.5199995525181 6.07166043037238
20.5399995520711 6.13776872371056
20.5599995516241 6.13022025798506
20.579999551177 6.13158744722219
20.59999955073 6.10455571859918
20.619999550283 6.10245346695267
20.6399995498359 6.13276425544367
20.6599995493889 6.27693996961538
20.6799995489419 6.40887868240065
20.6999995484948 6.56256111817688
20.7199995480478 6.68055278116548
20.7399995476007 6.85617424052214
20.7599995471537 7.15870493653752
20.7799995467067 7.74825736847324
20.7999995462596 8.57734956108538
20.8199995458126 9.40949899560271
20.8399995453656 10.2915647019184
20.8599995449185 10.8554296435724
20.8799995444715 11.3040512899345
20.8999995440245 11.5419174739693
20.9199995435774 11.607323329203
20.9399995431304 11.405869344468
20.9599995426834 11.0395129667131
20.9799995422363 10.5482959223266
20.9999995417893 9.97291957602087
21.0199995413423 9.3547716118744
21.0399995408952 8.76869360879511
21.0599995404482 8.25833816157201
21.0799995400012 7.72985715769732
21.0999995395541 7.32397949742297
21.1199995391071 6.97755239761179
21.13999953866 6.72543434615175
21.159999538213 6.59977325553053
21.179999537766 6.50058890285893
21.1999995373189 6.43723883311093
21.2199995368719 6.43167472930093
21.2399995364249 6.4788880240727
21.2599995359778 6.46654814502135
21.2799995355308 6.41743857515909
21.2999995350838 6.39818666543965
21.3199995346367 6.44951226054295
21.3399995341897 6.52696890996332
21.3599995337427 6.47371641149724
21.3799995332956 6.37380268020388
21.3999995328486 6.31675607422844
21.4199995324016 6.37100384945559
21.4399995319545 6.37193036035807
21.4599995315075 6.44340158741693
21.4799995310605 6.44022143746288
21.4999995306134 6.47868919704676
21.5199995301664 6.44751841601654
21.5399995297194 6.44266684305398
21.5599995292723 6.43305143108973
21.5799995288253 6.43232688473481
21.5999995283782 6.46279661196344
21.6199995279312 6.4496592215865
21.6399995274842 6.47929808442785
21.6599995270371 6.50072434772181
21.6799995265901 6.51625371166462
21.6999995261431 6.50324528924618
21.719999525696 6.49015092283808
21.739999525249 6.52621072492994
21.759999524802 6.54775598607473
21.7799995243549 6.52332758794427
21.7999995239079 6.47593684557436
21.8199995234609 6.52130129752642
21.8399995230138 6.49571541042059
21.8599995225668 6.46592840986414
21.8799995221198 6.4657188172101
21.8999995216727 6.53770725315406
21.9199995212257 6.60656130721864
21.9399995207787 6.5963326092999
21.9599995203316 6.56704578036934
21.9799995198846 6.59793829667211
21.9999995194376 6.64567508159965
22.0199995189905 6.63912431672262
22.0399995185435 6.50710411802756
22.0599995180964 6.4561153345124
22.0799995176494 6.53502414159883
22.0999995172024 6.6693996083385
22.1199995167553 6.68498183434903
22.1399995163083 6.63961244406353
22.1599995158613 6.61674636953323
22.1799995154142 6.58039965004174
22.1999995149672 6.54431039038186
22.2199995145202 6.55107343681197
22.2399995140731 6.57566753887005
22.2599995136261 6.65892374750283
22.2799995131791 6.73408086368869
22.299999512732 6.77282280409654
22.319999512285 6.77525576486248
22.339999511838 6.72695118090173
22.3599995113909 6.71269301950723
22.3799995109439 6.70996412918563
22.3999995104969 6.73931568780258
22.4199995100498 6.71791858492337
22.4399995096028 6.74039481364939
22.4599995091558 6.7355696371042
22.4799995087087 6.77136548975987
22.4999995082617 6.826781918211
22.5199995078146 7.02159456050423
22.5399995073676 7.16244954474753
22.5599995069206 7.17781848952657
22.5799995064735 7.0553245310434
22.5999995060265 6.95305179515699
22.6199995055795 6.94616020947296
22.6399995051324 6.93045048422321
22.6599995046854 6.89722755663062
22.6799995042384 6.82045932044901
22.6999995037913 6.76982724576428
22.7199995033443 6.7872320317641
22.7399995028973 6.82799064130021
22.7599995024502 6.8662359349662
22.7799995020032 6.90694058297829
22.7999995015562 6.9459856034708
22.8199995011091 6.91712739084517
22.8399995006621 6.91620858911876
22.8599995002151 6.90722731055132
22.879999499768 6.95659445461634
22.899999499321 6.9201383030205
22.9199994988739 6.9219753669195
22.9399994984269 6.95618310796545
22.9599994979799 6.98532728670078
22.9799994975328 6.98691751604536
22.9999994970858 6.90741877475666
23.0199994966388 6.87713060846743
23.0399994961917 6.91891194845834
23.0599994957447 7.05361196823338
23.0799994952977 7.16738740102262
23.0999994948506 7.12966304673448
23.1199994944036 7.0316692891146
23.1399994939566 6.94808888547923
23.1599994935095 6.9975986460753
23.1799994930625 7.06205580393158
23.1999994926155 7.08265676359164
23.2199994921684 7.07098699701434
23.2399994917214 7.18831391758176
23.2599994912744 7.27270736429869
23.2799994908273 7.24336770065704
23.2999994903803 7.0913882054424
23.3199994899333 7.05565746258951
23.3399994894862 7.02231612108004
23.3599994890392 6.97585227694594
23.3799994885921 6.99266922912318
23.3999994881451 7.05124838164669
23.4199994876981 7.10478211889638
23.439999487251 7.06784584765913
23.459999486804 7.05983553216851
23.479999486357 7.05541378292536
23.4999994859099 7.09269081300656
23.5199994854629 7.06454822964652
23.5399994850159 7.00398299878616
23.5599994845688 7.00279768865651
23.5799994841218 7.06373581661265
23.5999994836748 7.15995031443557
23.6199994832277 7.19348544614549
23.6399994827807 7.19351467770225
23.6599994823337 7.2048665360046
23.6799994818866 7.19762173336179
23.6999994814396 7.12544306836502
23.7199994809926 7.0496847323802
23.7399994805455 7.08562803357427
23.7599994800985 7.12609592653885
23.7799994796515 7.16730410650093
23.7999994792044 7.21850561958156
23.8199994787574 7.19645530851518
23.8399994783103 7.17305393121341
23.8599994778633 7.11196944574421
23.8799994774163 7.09942360866458
23.8999994769692 7.1216083545485
23.9199994765222 7.13516769323201
23.9399994760752 7.10180727515469
23.9599994756281 7.05228425441506
23.9799994751811 7.04436603488111
23.9999994747341 7.09781552674046
24.019999474287 7.14498660811319
24.03999947384 7.1858635597789
24.059999473393 7.18951853071529
24.0799994729459 7.15872947681334
24.0999994724989 7.16034276577101
24.1199994720519 7.18477754563062
24.1399994716048 7.1669028945241
24.1599994711578 7.09578673554256
24.1799994707108 7.0376330973898
24.1999994702637 7.02084175992274
24.2199994698167 7.07495872011392
24.2399994693697 7.13571098303247
24.2599994689226 7.17075954300365
24.2799994684756 7.20394566321859
24.2999994680285 7.19977806696957
24.3199994675815 7.21112305541854
24.3399994671345 7.15701695382815
24.3599994666874 7.1248836319391
24.3799994662404 7.10283573904176
24.3999994657934 7.13115551760381
24.4199994653463 7.12292133310695
24.4399994648993 7.15519860215394
24.4599994644523 7.20941375788526
24.4799994640052 7.21914050957604
24.4999994635582 7.19386289285969
24.5199994631112 7.19525334559595
24.5399994626641 7.23166020594064
24.5599994622171 7.2537831621593
24.5799994617701 7.19651406861097
24.599999461323 7.13291791574906
24.619999460876 7.08358889381069
24.639999460429 7.04330096272109
24.6599994599819 7.06480318659433
24.6799994595349 7.0504369199845
24.6999994590878 7.02233486948328
24.7199994586408 6.98205874808946
24.7399994581938 7.0126897914987
24.7599994577467 7.04801951127238
24.7799994572997 7.09334002112164
24.7999994568527 7.11216952077357
24.8199994564056 7.07119765725977
24.8399994559586 7.00172077314072
24.8599994555116 7.08863966360979
24.8799994550645 7.19480890276428
24.8999994546175 7.23269692766559
24.9199994541705 7.17968405752454
24.9399994537234 7.18845370304345
24.9599994532764 7.15855197700463
24.9799994528294 7.13875063251714
24.9999994523823 7.07658236987363
25.0199994519353 7.09076038528592
25.0399994514883 7.11942181503298
25.0599994510412 7.11322296013501
25.0799994505942 7.12602565992242
25.0999994501472 7.18672348772131
25.1199994497001 7.23828330966346
25.1399994492531 7.18827444007683
25.159999448806 7.12947754630999
25.179999448359 7.19149814750704
25.199999447912 7.25906644079411
25.2199994474649 7.22972237611666
25.2399994470179 7.24116905085805
25.2599994465709 7.25434484372073
25.2799994461238 7.26333150020336
25.2999994456768 7.28512885202327
25.3199994452298 7.47400301140431
25.3399994447827 7.89306014792766
25.3599994443357 8.2544777923314
25.3799994438887 8.55219806517937
25.3999994434416 8.88911448770115
25.4199994429946 9.01193459571639
25.4399994425476 9.05078315196865
25.4599994421005 8.89525900878728
25.4799994416535 8.78425713398956
25.4999994412065 8.55086703137665
25.5199994407594 8.30090886708901
25.5399994403124 8.00007086044051
25.5599994398654 7.76796567246635
25.5799994394183 7.57082389083662
25.5999994389713 7.40491409525622
25.6199994385242 7.33856014904293
25.6399994380772 7.25139209067567
25.6599994376302 7.29074269221851
25.6799994371831 7.30845424135267
25.6999994367361 7.29535403905281
25.7199994362891 7.33447593412748
25.739999435842 7.33134968468368
25.759999435395 7.37330657040066
25.779999434948 7.3054326060747
25.7999994345009 7.24624737047146
25.8199994340539 7.34135250938441
25.8399994336069 7.42598735689359
25.8599994331598 7.42925005081833
25.8799994327128 7.44238104329023
25.8999994322658 7.45350802109917
25.9199994318187 7.53091356423158
25.9399994313717 7.605272286481
25.9599994309247 7.58295353350915
25.9799994304776 7.54127169978147
25.9999994300306 7.36280901490684
26.0199994295836 7.28647576462794
26.0399994291365 7.33634728746001
26.0599994286895 7.38597233637121
26.0799994282424 7.39524440177982
26.0999994277954 7.36017034785338
26.1199994273484 7.37602138112183
26.1399994269013 7.40251306012013
26.1599994264543 7.33217711879506
26.1799994260073 7.20640034554396
26.1999994255602 7.20015649439692
26.2199994251132 7.31328520880839
26.2399994246662 7.31643362347184
26.2599994242191 7.24877484236173
26.2799994237721 7.21148997884799
26.2999994233251 7.14290781507748
26.319999422878 7.2095001420536
26.339999422431 7.239579879991
26.359999421984 7.22549513082667
26.3799994215369 7.19246643457548
26.3999994210899 7.22058271784974
26.4199994206429 7.22054469270573
26.4399994201958 7.1846604286851
26.4599994197488 7.21098283373614
26.4799994193017 7.25586745115977
26.4999994188547 7.25134300057628
26.5199994184077 7.21880422939674
26.5399994179606 7.19253257448876
26.5599994175136 7.1649380978671
26.5799994170666 7.18284438710409
26.5999994166195 7.18744045536866
26.6199994161725 7.15440949291758
26.6399994157255 7.15944005583029
26.6599994152784 7.22703955291454
26.6799994148314 7.27789340466585
26.6999994143844 7.23955716072238
26.7199994139373 7.14231283800715
26.7399994134903 7.06544255018149
26.7599994130433 7.05410973078786
26.7799994125962 7.14026247835865
26.7999994121492 7.1311012821001
26.8199994117022 7.11163779595499
26.8399994112551 7.11362984133275
26.8599994108081 7.16103803265909
26.8799994103611 7.1287625085842
26.899999409914 7.03914518439869
26.919999409467 7.0431264880114
26.9399994090199 7.08126136468491
26.9599994085729 7.13869920512698
26.9799994081259 7.12620708079164
26.9999994076788 7.08580241965764
27.0199994072318 7.08426034543357
27.0399994067848 7.15465146231188
27.0599994063377 7.22930493951374
27.0799994058907 7.15321584322658
27.0999994054437 7.07222668228872
27.1199994049966 7.13847454887162
27.1399994045496 7.22848835744231
27.1599994041026 7.20293263089684
27.1799994036555 7.1017075061328
27.1999994032085 7.06528468315706
27.2199994027615 7.12334374516138
27.2399994023144 7.2118814025146
27.2599994018674 7.21855685705415
27.2799994014204 7.22017553685372
27.2999994009733 7.11172395299411
27.3199994005263 7.09221769473559
27.3399994000793 7.09445331903585
27.3599993996322 7.16414210686358
27.3799993991852 7.17568237161113
27.3999993987381 7.16234447463013
27.4199993982911 7.17849299839198
27.4399993978441 7.2181593702836
27.459999397397 7.2336472754834
27.47999939695 7.26912368336826
27.499999396503 7.28779305777977
27.5199993960559 7.27039568900981
27.5399993956089 7.21720331311658
27.5599993951619 7.12095173219091
27.5799993947148 7.13277831472144
27.5999993942678 7.1863302055462
27.6199993938208 7.27477184403409
27.6399993933737 7.30521101637802
27.6599993929267 7.26225063742367
27.6799993924797 7.22490760655025
27.6999993920326 7.19192408345197
27.7199993915856 7.18969945088916
27.7399993911386 7.18679995939864
27.7599993906915 7.26505334122383
27.7799993902445 7.27521240112885
27.7999993897974 7.29715837151788
27.8199993893504 7.19132023854522
27.8399993889034 7.17981508195825
27.8599993884563 7.17029925751078
27.8799993880093 7.22254098266894
27.8999993875623 7.24488363018728
27.9199993871152 7.15340214581717
27.9399993866682 7.10236048283661
27.9599993862212 7.11893782697072
27.9799993857741 7.23900040994604
27.9999993853271 7.25509400690884
28.0199993848801 7.24950429719483
28.039999384433 7.15828361107462
28.059999383986 7.0677955213172
28.079999383539 6.98645215063665
28.0999993830919 7.06114830526502
28.1199993826449 7.1450835326184
28.1399993821979 7.20023613209737
28.1599993817508 7.20040055043112
28.1799993813038 7.23509622668787
28.1999993808568 7.15209476275216
28.2199993804097 7.09792301314391
28.2399993799627 7.07507725466476
28.2599993795156 7.15599124696875
28.2799993790686 7.18583617400699
28.2999993786216 7.16484201499351
28.3199993781745 7.1788823740997
28.3399993777275 7.19867181589264
28.3599993772805 7.25230680896892
28.3799993768334 7.24466711333539
28.3999993763864 7.22006324244985
28.4199993759394 7.12926943832309
28.4399993754923 7.14321766952738
28.4599993750453 7.19812987255223
28.4799993745983 7.2656418055661
28.4999993741512 7.3220278835563
28.5199993737042 7.3070686279344
28.5399993732572 7.28667141296045
28.5599993728101 7.20761255042218
28.5799993723631 7.0836318226477
28.5999993719161 7.03976144971923
28.619999371469 7.08593268312967
28.639999371022 7.17297184396649
28.659999370575 7.17471919957771
28.6799993701279 7.22956969461842
28.6999993696809 7.32988577199936
28.7199993692338 7.38338336070988
28.7399993687868 7.30842570825763
28.7599993683398 7.20946115963602
28.7799993678927 7.19757374610866
28.7999993674457 7.21855144001665
28.8199993669987 7.27889506059985
28.8399993665516 7.36300113120479
28.8599993661046 7.48282454075471
28.8799993656576 7.45949813940992
28.8999993652105 7.39684438767702
28.9199993647635 7.32886471148877
28.9399993643165 7.33833100775938
28.9599993638694 7.35433245961313
28.9799993634224 7.40055833572658
28.9999993629754 7.42360967609368
29.0199993625283 7.46538578717051
29.0399993620813 7.50092602385044
29.0599993616343 7.63614022756892
29.0799993611872 7.74335571092103
29.0999993607402 8.00253588063512
29.1199993602932 8.05137074614823
29.1399993598461 8.02900190468579
29.1599993593991 7.98432666895491
29.179999358952 8.13761383193877
29.199999358505 8.29380541823171
29.219999358058 8.57418941675517
29.2399993576109 8.83627688943126
29.2599993571639 9.16401480169143
29.2799993567169 10.1447425234713
29.2999993562698 11.783561710479
29.3199993558228 13.527625752005
29.3399993553758 16.7462125950298
29.3599993549287 20.6283834856519
29.3799993544817 23.1757830315653
29.3999993540347 25.4278414720815
29.4199993535876 27.2437984472296
29.4399993531406 27.5041402257049
29.4599993526936 26.8179846435145
29.4799993522465 25.1277839374402
29.4999993517995 23.3700490887543
29.5199993513525 20.6371630994391
29.5399993509054 17.1147577124262
29.5599993504584 14.9400307630845
29.5799993500113 12.9477205224309
29.5999993495643 10.7184945700888
29.6199993491173 9.62927698499671
29.6399993486702 8.9235285146009
29.6599993482232 8.16258281300345
29.6799993477762 7.8265683618877
29.6999993473291 7.61361725692518
29.7199993468821 7.47893922426741
29.7399993464351 7.40508410935273
29.759999345988 7.28978240524239
29.779999345541 7.18808542416984
29.799999345094 7.12841183427984
29.8199993446469 7.11352664972606
29.8399993441999 7.06074646780583
29.8599993437529 7.040379275714
29.8799993433058 7.03721487111896
29.8999993428588 7.07626092418309
29.9199993424118 7.15798971781939
29.9399993419647 7.1898855546812
29.9599993415177 7.21628018022383
29.9799993410707 7.18281509191826
29.9999993406236 7.10539589802111
30.0199993401766 7.03951554057503
30.0399993397295 7.00179944932186
30.0599993392825 7.02489211468535
30.0799993388355 7.01967830076442
30.0999993383884 7.08962521631469
30.1199993379414 7.09749259200925
30.1399993374944 7.09555609867015
30.1599993370473 7.00074221229146
30.1799993366003 7.02845550717832
30.1999993361533 7.07379163552173
30.2199993357062 7.08283492709477
30.2399993352592 7.09033371955292
30.2599993348122 7.03481862430646
30.2799993343651 7.01786184811613
30.2999993339181 6.90895880330445
30.3199993334711 6.85880785644839
30.339999333024 6.90231119225996
30.359999332577 6.94578154476417
30.37999933213 7.00575001530119
30.3999993316829 7.00600647050292
30.4199993312359 7.02518745594912
30.4399993307889 6.95105651720576
30.4599993303418 6.86411914974712
30.4799993298948 6.82131249735568
30.4999993294477 6.84923761415764
30.5199993290007 6.83867934754636
30.5399993285537 6.87294617667702
30.5599993281066 6.85268932226032
30.5799993276596 6.89946831857169
30.5999993272126 6.85958337398615
30.6199993267655 6.8075965094159
30.6399993263185 6.72871400372201
30.6599993258715 6.74722106989995
30.6799993254244 6.77978865883156
30.6999993249774 6.82364830477709
30.7199993245304 6.84557998729821
30.7399993240833 6.83749492347286
30.7599993236363 6.86593362273214
30.7799993231893 6.80258513921681
30.7999993227422 6.75755054825518
30.8199993222952 6.6723826585846
30.8399993218482 6.71079245462261
30.8599993214011 6.73380895941414
30.8799993209541 6.75696872320876
30.8999993205071 6.73055903835898
30.91999932006 6.75775823362479
30.939999319613 6.76397799882564
30.9599993191659 6.79949742488173
30.9799993187189 6.78824797164148
30.9999993182719 6.80265261839806
31.0199993178248 6.87300593858099
31.0399993173778 6.93510603524393
31.0599993169308 6.87993282357208
31.0799993164837 6.81329823625033
31.0999993160367 6.76313253933176
31.1199993155897 6.71914708386172
31.1399993151426 6.58662072701559
31.1599993146956 6.56431631247674
31.1799993142486 6.5507702634037
31.1999993138015 6.61668466820936
31.2199993133545 6.67495714842917
31.2399993129075 6.73152556456182
31.2599993124604 6.73332417281461
31.2799993120134 6.72598142389399
31.2999993115664 6.68717483272892
31.3199993111193 6.67784025551432
31.3399993106723 6.74032345689734
31.3599993102252 6.77648880850257
31.3799993097782 6.77769279374515
31.3999993093312 6.68439613154966
31.4199993088841 6.68035130792763
31.4399993084371 6.6211140308794
31.4599993079901 6.66339636529073
31.479999307543 6.65491896523585
31.499999307096 6.66542440254879
31.519999306649 6.65975923424128
31.5399993062019 6.65522913655552
31.5599993057549 6.73810949922948
31.5799993053079 6.76616397174315
31.5999993048608 6.7927839200006
31.6199993044138 6.70068376806355
31.6399993039668 6.67668428632595
31.6599993035197 6.69967551344814
31.6799993030727 6.73394791737541
31.6999993026257 6.76181400890606
31.7199993021786 6.74716421698042
31.7399993017316 6.67069997916931
31.7599993012846 6.62879318349719
31.7799993008375 6.59431975196203
31.7999993003905 6.590250288445
31.8199992999434 6.57271408399985
31.8399992994964 6.57924573932726
31.8599992990494 6.61657827782321
31.8799992986023 6.61052526085561
31.8999992981553 6.62453478380227
31.9199992977083 6.58325731070539
31.9399992972612 6.60247023971911
31.9599992968142 6.5820672039701
31.9799992963672 6.61264536795145
31.9999992959201 6.57364313468623
32.0199992954731 6.60533285638213
32.0399992950261 6.62535531044348
32.059999294579 6.66757631719777
32.079999294132 6.66324026956211
32.099999293685 6.63895369776807
32.1199992932379 6.59146069311718
32.1399992927909 6.60323111604288
32.1599992923439 6.60635742202166
32.1799992918968 6.58362028115466
32.1999992914498 6.55143694730896
32.2199992910028 6.53444154352854
32.2399992905557 6.558536559211
32.2599992901087 6.57422253970165
32.2799992896616 6.57681145663519
32.2999992892146 6.57429858937841
32.3199992887676 6.57721637152462
32.3399992883205 6.55515654410454
32.3599992878735 6.51839136284594
32.3799992874265 6.5528311695419
32.3999992869794 6.55369191439373
32.4199992865324 6.51412195703179
32.4399992860854 6.47988967170754
32.4599992856383 6.50511063216374
32.4799992851913 6.57484600047919
32.4999992847443 6.66777529307418
32.5199992842972 6.67014598222462
32.5399992838502 6.63649724236717
32.5599992834032 6.47564261875869
32.5799992829561 6.49680985242287
32.5999992825091 6.55921295404461
32.6199992820621 6.65238453303865
32.639999281615 6.67632606629342
32.659999281168 6.64576265798631
32.6799992807209 6.68815201033553
32.6999992802739 6.65437283439833
32.7199992798269 6.6498862640126
32.7399992793798 6.71675416261374
32.7599992789328 6.91595542163694
32.7799992784858 7.00646681144367
32.7999992780387 7.08107917923675
32.8199992775917 7.36989608374624
32.8399992771447 7.98930101000744
32.8599992766976 8.81648525141466
32.8799992762506 9.56193774656799
32.8999992758036 10.3650381135404
32.9199992753565 11.1989379013599
32.9399992749095 11.8370601518745
32.9599992744625 12.1707432433608
32.9799992740154 12.3531079055374
32.9999992735684 12.3262156113312
33.0199992731214 12.046005467223
33.0399992726743 11.6043098416326
33.0599992722273 10.927193272302
33.0799992717803 10.2103085551076
33.0999992713332 9.32996517889059
33.1199992708862 8.62226703893817
33.1399992704391 8.03980137943056
33.1599992699921 7.5424335852387
33.1799992695451 7.20154759377075
33.199999269098 6.94837299679418
33.219999268651 6.63806056114734
33.239999268204 6.47574456544476
33.2599992677569 6.42135961663817
33.2799992673099 6.46689972597255
33.2999992668629 6.41742467849555
33.3199992664158 6.389725384819
33.3399992659688 6.34561167957782
33.3599992655218 6.34129958906082
33.3799992650747 6.3289719766102
33.3999992646277 6.31125223734469
33.4199992641807 6.2981340992864
33.4399992637336 6.23222119393414
33.4599992632866 6.24700534085844
33.4799992628396 6.30783935977745
33.4999992623925 6.38240471791311
33.5199992619455 6.47444203121611
33.5399992614985 6.50198071293871
33.5599992610514 6.49883014712895
33.5799992606044 6.37358531407528
33.5999992601573 6.22461846534519
33.6199992597103 6.19394406506599
33.6399992592633 6.24020750402969
33.6599992588162 6.33165524023803
33.6799992583692 6.32980721388918
33.6999992579222 6.24935000237645
33.7199992574751 6.14959371876479
33.7399992570281 6.10280519380167
33.7599992565811 6.15950533516328
33.779999256134 6.18750487020693
33.799999255687 6.19615771947021
33.81999925524 6.11334504066591
33.8399992547929 6.08443350588092
33.8599992543459 6.03241136377782
33.8799992538989 6.01080194175211
33.8999992534518 5.98704210032188
33.9199992530048 6.02572547505572
33.9399992525578 6.08117571418884
33.9599992521107 6.12007067370104
33.9799992516637 6.17712605994927
33.9999992512167 6.22685063390674
34.0199992507696 6.21639869999916
34.0399992503226 6.14509937342414
34.0599992498755 6.09021824772558
34.0799992494285 6.04181384363567
34.0999992489815 6.05785284574028
34.1199992485344 6.068350168696
34.1399992480874 6.09262488841536
34.1599992476404 6.06257835408224
34.1799992471933 6.05368028223605
34.1999992467463 6.03307520095099
34.2199992462993 6.03369474334619
34.2399992458522 6.05524674767827
34.2599992454052 6.14715468079569
34.2799992449582 6.25543732422878
34.2999992445111 6.27337582671858
34.3199992440641 6.24126525247667
34.3399992436171 6.24859173809129
34.35999924317 6.28234172752354
34.379999242723 6.30782108428845
34.399999242276 6.30346273682889
34.4199992418289 6.18610511183952
34.4399992413819 6.12015247145711
34.4599992409348 6.13611897417682
34.4799992404878 6.21790440712839
34.4999992400408 6.21594427678338
34.5199992395937 6.13388084511424
34.5399992391467 6.1346194617973
34.5599992386997 6.11813916655919
34.5799992382526 5.99798747261871
34.5999992378056 5.90751671467972
34.6199992373586 5.9024254535791
34.6399992369115 5.91250025517598
34.6599992364645 5.95969859503078
34.6799992360175 5.96106969543893
34.6999992355704 5.97495548851146
34.7199992351234 5.94657422578528
34.7399992346764 5.87460993152769
34.7599992342293 5.87830102000744
34.7799992337823 5.87354390143099
34.7999992333353 5.88111129177905
34.8199992328882 5.85897442903696
34.8399992324412 5.90899213504808
34.8599992319942 5.99421931685278
34.8799992315471 6.04360425908843
34.8999992311001 5.96116357162421
34.919999230653 5.90329484886424
34.939999230206 5.83032640861946
34.959999229759 5.83417312926713
34.9799992293119 5.87894253247924
34.9999992288649 5.93600622994172
35.0199992284179 5.91037998802544
35.0399992279708 5.75977918242626
35.0599992275238 5.72972714882316
35.0799992270768 5.80582883433298
35.0999992266297 5.82123104745507
35.1199992261827 5.78787364359088
35.1399992257357 5.75020332310777
35.1599992252886 5.76069897519487
35.1799992248416 5.69464205865024
35.1999992243946 5.65004558609007
35.2199992239475 5.6746492909943
35.2399992235005 5.73034431792777
35.2599992230535 5.72607198529919
35.2799992226064 5.74664983692136
35.2999992221594 5.80161361561799
35.3199992217124 5.81591597657543
35.3399992212653 5.79025694394174
35.3599992208183 5.74560319752367
35.3799992203712 5.70415922819772
35.3999992199242 5.65537316346671
35.4199992194772 5.62099097383708
35.4399992190301 5.75412144628508
35.4599992185831 5.83193101301971
35.4799992181361 5.84398619225259
35.499999217689 5.80600328010473
35.519999217242 5.79086961563447
35.539999216795 5.79687269378729
35.5599992163479 5.64500723097746
35.5799992159009 5.69270973666724
35.5999992154539 5.6817492817881
35.6199992150068 5.77612430654283
35.6399992145598 5.73463842579221
35.6599992141128 5.75726181247465
35.6799992136657 5.75539529436583
35.6999992132187 5.6649038727132
35.7199992127717 5.61984330017147
35.7399992123246 5.61488226442884
35.7599992118776 5.67777249766052
35.7799992114306 5.74374540480604
35.7999992109835 5.76372007354069
35.8199992105365 5.75072528968703
35.8399992100894 5.68986566408961
35.8599992096424 5.69442525837673
35.8799992091954 5.7898361501397
35.8999992087483 5.89014307588254
35.9199992083013 5.85787007772444
35.9399992078543 5.84091350742796
35.9599992074072 5.93587510584559
35.9799992069602 6.27664166130494
35.9999992065132 6.71672690578692
36.0199992060661 7.21668351485827
36.0399992056191 7.6808257811297
36.0599992051721 7.82627144402808
36.079999204725 7.89922733243427
36.099999204278 7.86285354604247
36.119999203831 7.78476330402415
36.1399992033839 7.57523620039092
36.1599992029369 7.27901373797071
36.1799992024899 6.92163672912608
36.1999992020428 6.55422852227725
36.2199992015958 6.23617795979087
36.2399992011487 6.06943180914217
36.2599992007017 5.89447838555295
36.2799992002547 5.6943900683467
36.2999991998076 5.60860438838907
36.3199991993606 5.58030707826893
36.3399991989136 5.63719912613932
36.3599991984665 5.66780541656209
36.3799991980195 5.64868560942666
36.3999991975725 5.56926225562704
36.4199991971254 5.50464148341663
36.4399991966784 5.50318795698722
36.4599991962314 5.45491746306913
36.4799991957843 5.38149113329464
36.4999991953373 5.37409764978467
36.5199991948903 5.43993597082143
36.5399991944432 5.52117319511663
36.5599991939962 5.5167434766591
36.5799991935492 5.51799930666682
36.5999991931021 5.55026515090474
36.6199991926551 5.56574089354064
36.6399991922081 5.48853315979939
36.659999191761 5.40346788245019
36.679999191314 5.36101161572417
36.6999991908669 5.32271687708802
36.7199991904199 5.32606145172752
36.7399991899729 5.37924983673307
36.7599991895258 5.43485635825356
36.7799991890788 5.41293584521348
36.7999991886318 5.33022732126252
36.8199991881847 5.28911395069684
36.8399991877377 5.32333484054769
36.8599991872907 5.37974813871838
36.8799991868436 5.46547563277579
36.8999991863966 5.46386601127966
36.9199991859496 5.41602994195731
36.9399991855025 5.37026828889305
36.9599991850555 5.3542003735401
36.9799991846085 5.37371698683238
36.9999991841614 5.34132024541225
37.0199991837144 5.27003757594809
37.0399991832674 5.23357049473219
37.0599991828203 5.20117527130746
37.0799991823733 5.14505351507757
37.0999991819263 5.13574867772469
37.1199991814792 5.1641977410021
37.1399991810322 5.29760158084937
37.1599991805851 5.3887113987889
37.1799991801381 5.40680830213682
37.1999991796911 5.317961073375
37.219999179244 5.20900823616937
37.239999178797 5.19518767666379
37.25999917835 5.29655822728029
37.2799991779029 5.31684205591122
37.2999991774559 5.25632419191747
37.3199991770089 5.17816311563168
37.3399991765618 5.12742507511335
37.3599991761148 5.16677694904747
37.3799991756678 5.15800775718714
37.3999991752207 5.17522046314169
37.4199991747737 5.14631388825557
37.4399991743267 5.14012863943345
37.4599991738796 5.15323452271711
37.4799991734326 5.15845691041466
37.4999991729856 5.1870920755243
37.5199991725385 5.21975881118608
37.5399991720915 5.23663032958825
37.5599991716444 5.24709295865998
37.5799991711974 5.20029362029871
37.5999991707504 5.21783877074842
37.6199991703033 5.22901953570503
37.6399991698563 5.211258739646
37.6599991694093 5.18846600402046
37.6799991689622 5.19194374565494
37.6999991685152 5.2485039618947
37.7199991680682 5.24487074089832
37.7399991676211 5.19914036612693
37.7599991671741 5.14554526951369
37.7799991667271 5.09882040113451
37.79999916628 5.06041900306036
37.819999165833 5.04581062401755
37.839999165386 5.08756750598656
37.8599991649389 5.11257451318574
37.8799991644919 5.11168594179442
37.8999991640449 5.14421970770837
37.9199991635978 5.17107845492134
37.9399991631508 5.14804354625765
37.9599991627038 5.10304662374017
37.9799991622567 5.08488512262572
37.9999991618097 5.10128164784423
38.0199991613626 5.07740249541459
38.0399991609156 5.03132539815287
38.0599991604686 5.10856545207089
38.0799991600215 5.13935802874473
38.0999991595745 5.1958218464271
38.1199991591275 5.18306162822536
38.1399991586804 5.13778623127204
38.1599991582334 5.06857185251115
38.1799991577864 5.00260928652213
38.1999991573393 5.0052643155073
38.2199991568923 4.96786212545399
38.2399991564453 4.98505887652784
38.2599991559982 5.03346252366159
38.2799991555512 5.19207289346816
38.2999991551042 5.17700318411832
38.3199991546571 5.1431463579221
38.3399991542101 4.98472597517935
38.3599991537631 4.95403719777476
38.379999153316 4.97599786452119
38.399999152869 5.03233940850813
38.419999152422 5.06523938257125
38.4399991519749 5.0879206205103
38.4599991515279 5.15436974830654
38.4799991510808 5.15446550045385
38.4999991506338 5.0868102538291
38.5199991501868 5.04669414850209
38.5399991497397 5.06468356566226
38.5599991492927 5.10814772839294
38.5799991488457 5.1437945515319
38.5999991483986 5.07954206274848
38.6199991479516 5.08536548725684
38.6399991475046 5.10736927448722
38.6599991470575 5.17863006765274
38.6799991466105 5.16184255297041
38.6999991461635 5.16832334696614
38.7199991457164 5.22473345219758
38.7399991452694 5.23322231213399
38.7599991448224 5.20789463161153
38.7799991443753 5.17330850486373
38.7999991439283 5.17310169373906
38.8199991434813 5.34272692250995
38.8399991430342 5.48648715162841
38.8599991425872 5.49448908325004
38.8799991421402 5.4765515694455
38.8999991416931 5.52952962534697
38.9199991412461 5.52334953387219
38.939999140799 5.75902386410009
38.959999140352 6.12244451102014
38.979999139905 6.17457382385004
38.9999991394579 6.41363264943598
39.0199991390109 6.86341980923806
39.0399991385639 6.9405614821852
39.0599991381168 7.19103325094217
39.0799991376698 7.63942514976889
39.0999991372228 7.77184397981871
39.1199991367757 7.85426749759949
39.1399991363287 7.94518624611219
39.1599991358817 7.82568569428085
39.1799991354346 7.70386829238994
39.1999991349876 7.32913444102749
39.2199991345406 7.24792352968995
39.2399991340935 7.08533171706089
39.2599991336465 6.65301783658382
39.2799991331995 6.61680366809453
39.2999991327524 6.44748877757204
39.3199991323054 5.92469253896816
39.3399991318583 5.86768838169081
39.3599991314113 5.8024832162896
39.3799991309643 5.51097598492774
39.3999991305172 5.44154785461956
39.4199991300702 5.39070926901503
39.4399991296232 5.19502427502309
39.4599991291761 5.20630898019336
39.4799991287291 5.18981521033563
39.4999991282821 5.05840584691327
39.519999127835 4.98890711694143
39.539999127388 4.97413311957694
39.559999126941 4.99565977607872
39.5799991264939 5.00133080966644
39.5999991260469 5.00845425632801
39.6199991255999 5.02068735415984
39.6399991251528 5.02597854530827
39.6599991247058 4.98582582839017
39.6799991242588 4.9906912674508
39.6999991238117 5.06202412178289
39.7199991233647 5.12363970496532
39.7399991229177 5.06673505849654
39.7599991224706 5.02103657403908
39.7799991220236 5.01705514904213
39.7999991215765 4.97080841866882
39.8199991211295 5.00296393905666
39.8399991206825 5.0198654008344
39.8599991202354 4.97219943141439
39.8799991197884 4.96206456288314
39.8999991193414 4.98558456310724
39.9199991188943 5.05727728486084
39.9399991184473 5.08991252309983
39.9599991180003 5.10479317593382
39.9799991175532 5.11214896033017
39.9999991171062 5.06968102812229
40.0199991166592 5.03799963235694
40.0399991162121 4.98395739380966
40.0599991157651 4.94428479009034
40.0799991153181 4.94476807834612
40.099999114871 4.99960283751832
40.119999114424 4.9628203777658
40.139999113977 4.88957149370222
40.1599991135299 4.80743339112488
40.1799991130829 4.83979337911109
40.1999991126359 4.83658967211901
40.2199991121888 4.81202409795632
40.2399991117418 4.7642947271739
40.2599991112947 4.78701247673863
40.2799991108477 4.84027665862649
40.2999991104007 4.89904777327509
40.3199991099536 4.94756047627091
40.3399991095066 4.95989939970832
40.3599991090596 4.95745283614311
40.3799991086125 4.92609872414374
40.3999991081655 4.83784573597078
40.4199991077185 4.8204371412403
40.4399991072714 4.79649992891857
40.4599991068244 4.84134295954432
40.4799991063774 4.81751882989476
40.4999991059303 4.82417053690202
40.5199991054833 4.83986946258995
40.5399991050363 4.88280368721014
40.5599991045892 4.93223546985148
40.5799991041422 4.95504713249723
40.5999991036952 4.93237186075764
40.6199991032481 4.87778799364327
40.6399991028011 4.85146541874311
40.6599991023541 4.90127638315547
40.679999101907 4.86785261871796
40.69999910146 4.82153471092648
40.7199991010129 4.78306354391488
40.7399991005659 4.8213633203984
40.7599991001189 4.86888639700779
40.7799990996718 4.84047424582515
40.7999990992248 4.82045877419444
40.8199990987778 4.83806160025444
40.8399990983307 4.91187787558827
40.8599990978837 5.00158914863818
40.8799990974367 4.95259551686384
40.8999990969896 4.83698113294213
40.9199990965426 4.75996972039933
40.9399990960956 4.76026380393459
40.9599990956485 4.79148653052347
40.9799990952015 4.81301806620893
40.9999990947545 4.84019217119588
41.0199990943074 4.86581887128017
41.0399990938604 4.83432568031362
41.0599990934134 4.80223954450686
41.0799990929663 4.78084826904469
41.0999990925193 4.75673631261383
41.1199990920722 4.75585187190201
41.1399990916252 4.79946579927517
41.1599990911782 4.88613339470565
41.1799990907311 4.9189785698281
41.1999990902841 4.91599446366876
41.2199990898371 4.84103240313764
41.23999908939 4.80323021580273
41.259999088943 4.80690194201091
41.279999088496 4.82893286855097
41.2999990880489 4.81899089091639
41.3199990876019 4.78321391124131
41.3399990871549 4.81948361100925
41.3599990867078 4.85558367049866
41.3799990862608 4.96927755513375
41.3999990858138 4.97104006576201
41.4199990853667 4.90803153568958
41.4399990849197 4.78137492854154
41.4599990844727 4.78093134305413
41.4799990840256 4.88336494964189
41.4999990835786 4.91341698742307
41.5199990831316 4.94635688071924
41.5399990826845 4.99281967063263
41.5599990822375 5.08899502756018
41.5799990817904 5.1169747481203
41.5999990813434 5.07336437673484
41.6199990808964 5.08416090353613
41.6399990804493 5.11640150573751
41.6599990800023 5.17502479904135
41.6799990795553 5.21953019352852
41.6999990791082 5.22751279313189
41.7199990786612 5.31091150725493
41.7399990782142 5.53607613013331
41.7599990777671 5.93823244797362
41.7799990773201 6.39465704455175
41.7999990768731 7.1104241470331
41.819999076426 7.68909389903197
41.839999075979 8.16207574387502
41.859999075532 8.40936109631327
41.8799990750849 8.56918941691683
41.8999990746379 8.60523004251466
41.9199990741909 8.38660590958297
41.9399990737438 8.08990548871165
41.9599990732968 7.78402957685952
41.9799990728498 7.45231533143412
41.9999990724027 7.04507674543761
42.0199990719557 6.63810147639271
42.0399990715086 6.31971103209363
42.0599990710616 5.97482684389291
42.0799990706146 5.7510663417238
42.0999990701675 5.47368803886236
42.1199990697205 5.30428794660567
42.1399990692735 5.1478140068497
42.1599990688264 5.03738244783485
42.1799990683794 5.03294029201516
42.1999990679324 5.03593609074488
42.2199990674853 5.03044656137972
42.2399990670383 4.9249420675593
42.2599990665913 4.85895012845251
42.2799990661442 4.80850685076433
42.2999990656972 4.81455489951602
42.3199990652502 4.84333412111851
42.3399990648031 4.87684887150383
42.3599990643561 4.91313881036145
42.3799990639091 4.89676291119983
42.399999063462 4.89475099790975
42.419999063015 4.87278840130431
42.4399990625679 4.91145053726332
42.4599990621209 4.87311653516997
42.4799990616739 4.84372420442483
42.4999990612268 4.79723918935884
42.5199990607798 4.84738053522137
42.5399990603328 4.8268528887985
42.5599990598857 4.79563759721782
42.5799990594387 4.75273806441528
42.5999990589917 4.83651321048812
42.6199990585446 4.88331600524031
42.6399990580976 4.90727532483591
42.6599990576506 4.81817317088757
42.6799990572035 4.79818053027286
42.6999990567565 4.83672772503007
42.7199990563095 4.91505059344223
42.7399990558624 4.92760579564197
42.7599990554154 4.85627020633443
42.7799990549684 4.87324127705437
42.7999990545213 4.8567986574298
42.8199990540743 4.80235413396782
42.8399990536273 4.65303481503337
42.8599990531802 4.60543255401973
42.8799990527332 4.70091270804808
42.8999990522861 4.81341635556329
42.9199990518391 4.86780568333182
42.9399990513921 4.864528239326
42.959999050945 4.88502869282511
42.979999050498 4.9081246978487
42.999999050051 4.92211172602996
43.0199990496039 4.876499724407
43.0399990491569 4.83384446900879
43.0599990487099 4.80412196846567
43.0799990482628 4.7662719344661
43.0999990478158 4.79431486665963
43.1199990473688 4.80911369822925
43.1399990469217 4.89331776302548
43.1599990464747 4.86554449635623
43.1799990460277 4.88103879570555
43.1999990455806 4.82290354525586
43.2199990451336 4.81597539067701
43.2399990446866 4.77293601742227
43.2599990442395 4.79643309734939
43.2799990437925 4.78993303884472
43.2999990433455 4.76177819897474
43.3199990428984 4.76887906293285
43.3399990424514 4.79168506728914
43.3599990420043 4.81080164798442
43.3799990415573 4.76965891799097
43.3999990411103 4.79250457083742
43.4199990406632 4.85001245574844
43.4399990402162 4.88721097070187
43.4599990397692 4.8485038084468
43.4799990393221 4.78786864304992
43.4999990388751 4.76917313238343
43.5199990384281 4.78701499665609
43.539999037981 4.78547862721459
43.559999037534 4.78000558109738
43.579999037087 4.80479095641578
43.5999990366399 4.82677016528051
43.6199990361929 4.7869443128232
43.6399990357459 4.73387751535901
43.6599990352988 4.6953783216055
43.6799990348518 4.75227735441271
43.6999990344048 4.74197827948375
43.7199990339577 4.73966757407124
43.7399990335107 4.67620075369293
43.7599990330637 4.72876530921798
43.7799990326166 4.78255161567549
43.7999990321696 4.79408775176091
43.8199990317225 4.78949001896992
43.8399990312755 4.80494484404216
43.8599990308285 4.81075232271148
43.8799990303814 4.75000272968592
43.8999990299344 4.66966591370235
43.9199990294874 4.69368468722422
43.9399990290403 4.75326011312986
43.9599990285933 4.79110897184506
43.9799990281463 4.7876267881759
43.9999990276992 4.80418300777656
44.0199990272522 4.84094247848639
44.0399990268052 4.85730580653041
44.0599990263581 4.82227739904769
44.0799990259111 4.82557892847119
44.0999990254641 4.83357473153389
44.119999025017 4.86326536987425
44.13999902457 4.88823506228268
44.159999024123 4.96229772960532
44.1799990236759 4.92677240070484
44.1999990232289 4.87745976663069
44.2199990227818 4.88341344759983
44.2399990223348 4.91156757664909
44.2599990218878 4.92522172231381
44.2799990214407 4.85886142137288
44.2999990209937 4.93690259748263
44.3199990205467 4.99023574462951
44.3399990200996 5.06097117726411
44.3599990196526 5.09757264319248
44.3799990192056 5.19965008456389
44.3999990187585 5.39081502198206
44.4199990183115 5.57681538078562
44.4399990178645 5.80598241491964
44.4599990174174 6.25707613750065
44.4799990169704 6.60434415986756
44.4999990165234 6.80846970502567
44.5199990160763 7.08758836188208
44.5399990156293 7.30013577485717
44.5599990151823 7.34240188630012
44.5799990147352 7.06614379432368
44.5999990142882 6.7570341663537
44.6199990138412 6.50997615543562
44.6399990133941 6.26547037261699
44.6599990129471 5.92933350779373
44.6799990125 5.62998013257357
44.699999012053 5.41221407484454
44.719999011606 5.32417705889332
44.7399990111589 5.23167139252126
44.7599990107119 5.10598267284677
44.7799990102649 5.07440538628214
44.7999990098178 5.01809470672249
44.8199990093708 4.98337752252849
44.8399990089238 4.88495735561657
44.8599990084767 4.8541715283591
44.8799990080297 4.81932729249967
44.8999990075827 4.78576403019359
44.9199990071356 4.77698970310126
44.9399990066886 4.79834619037939
44.9599990062416 4.81457518075921
44.9799990057945 4.86995204270357
44.9999990053475 4.86255814509021
45.0199990049005 4.88834905306954
45.0399990044534 4.81826571383934
45.0599990040064 4.84282089246046
45.0799990035594 4.79146848215815
45.0999990031123 4.72181428711534
45.1199990026653 4.6601786335918
45.1399990022182 4.63486597852732
45.1599990017712 4.685671763212
45.1799990013242 4.68865191959129
45.1999990008771 4.67034976316491
45.2199990004301 4.675764971777
45.2399989999831 4.74883217233808
45.259998999536 4.80265155511131
45.279998999089 4.80106895039877
45.299998998642 4.73600141349494
45.3199989981949 4.72253713156965
45.3399989977479 4.72581637191304
45.3599989973009 4.68459212622973
45.3799989968538 4.68998513432997
45.3999989964068 4.63375470878072
45.4199989959598 4.59241628791526
45.4399989955127 4.55940151306274
45.4599989950657 4.55359723428674
45.4799989946187 4.60528084985582
45.4999989941716 4.62508569769901
45.5199989937246 4.66404975615715
45.5399989932776 4.6287605069416
45.5599989928305 4.62324270480967
45.5799989923835 4.67410115571313
45.5999989919364 4.73009411396127
45.6199989914894 4.69824762280439
45.6399989910424 4.64011397452053
45.6599989905953 4.61566212560475
45.6799989901483 4.60566009636434
45.6999989897013 4.56897631413031
45.7199989892542 4.58564635838113
45.7399989888072 4.62540130982629
45.7599989883602 4.66287661216191
45.7799989879131 4.64962717114799
45.7999989874661 4.62154564112487
45.8199989870191 4.66754306581913
45.839998986572 4.61809142118164
45.859998986125 4.59699592340381
45.879998985678 4.58089771992307
45.8999989852309 4.71221647434162
45.9199989847839 4.78381251369225
45.9399989843369 4.73993338417605
45.9599989838898 4.61309430514422
45.9799989834428 4.53154533454445
45.9999989829957 4.52674574309245
46.0199989825487 4.58862851881872
46.0399989821017 4.60818737877301
46.0599989816546 4.58020275627596
46.0799989812076 4.50130531257321
46.0999989807606 4.48046569651047
46.1199989803135 4.60669632883409
46.1399989798665 4.66544865808809
46.1599989794195 4.73738508721743
46.1799989789724 4.9828830452542
46.1999989785254 5.16832967722647
46.2199989780784 5.26155651385454
46.2399989776313 5.5802081841921
46.2599989771843 5.75095961343582
46.2799989767373 5.81517718954001
46.2999989762902 6.09400314748936
46.3199989758432 6.19824243724209
46.3399989753962 6.17759439336054
46.3599989749491 6.01806791740018
46.3799989745021 5.87605538084135
46.3999989740551 5.80183995284225
46.419998973608 5.67417902687884
46.439998973161 5.5466151739929
46.4599989727139 5.48840708634369
46.4799989722669 5.24978311610671
46.4999989718199 5.09431218613839
46.5199989713728 5.08254580240417
46.5399989709258 4.94244433183951
46.5599989704788 4.8400213370981
46.5799989700317 4.79236818557575
46.5999989695847 4.70744497737276
46.6199989691377 4.56445414806128
46.6399989686906 4.52856666783274
46.6599989682436 4.47728168671525
46.6799989677966 4.49280865004859
46.6999989673495 4.49524285679531
46.7199989669025 4.51460773815017
46.7399989664555 4.56023377141495
46.7599989660084 4.5916743834152
46.7799989655614 4.60756478435275
46.7999989651144 4.66837920992503
46.8199989646673 4.74911903923547
46.8399989642203 4.71980425648273
46.8599989637733 4.69620279928958
46.8799989633262 4.6436782170922
46.8999989628792 4.68918489370224
46.9199989624321 4.74987497499019
46.9399989619851 4.77403321711958
46.9599989615381 4.77262732209218
46.979998961091 4.76989160712405
46.999998960644 4.80534764808634
47.019998960197 4.83023245987413
47.0399989597499 4.81651540576108
47.0599989593029 4.75916539359849
47.0799989588559 4.71788455317921
47.0999989584088 4.60997424789114
47.1199989579618 4.60676073937615
47.1399989575148 4.5676501596766
47.1599989570677 4.60560437659485
47.1799989566207 4.55972238767712
47.1999989561737 4.49403475597088
47.2199989557266 4.51343158228915
47.2399989552796 4.60197743021903
47.2599989548326 4.64415336485697
47.2799989543855 4.59318669113159
47.2999989539385 4.50681954405209
47.3199989534914 4.45454356991999
47.3399989530444 4.37566088601357
47.3599989525974 4.37823343315006
47.3799989521503 4.32920391260419
47.3999989517033 4.36087994178907
47.4199989512563 4.30870855901833
47.4399989508092 4.34169597349712
47.4599989503622 4.26541531021261
47.4799989499152 4.35226749924389
47.4999989494681 4.3977801826064
47.5199989490211 4.45096491523324
47.5399989485741 4.42899334246202
47.559998948127 4.45765464775638
47.57999894768 4.52563588118322
47.599998947233 4.56581081592382
47.6199989467859 4.61305756993724
47.6399989463389 4.51963045559426
47.6599989458919 4.45085832356408
47.6799989454448 4.32595030474041
47.6999989449978 4.37310360823026
47.7199989445508 4.34242965017363
47.7399989441037 4.32667316539947
47.7599989436567 4.34527809525889
47.7799989432096 4.37099849280729
47.7999989427626 4.50637120216636
47.8199989423156 4.63546399531419
47.8399989418685 4.67746164412853
47.8599989414215 4.56976726372643
47.8799989409745 4.40910363277892
47.8999989405274 4.36552984082623
47.9199989400804 4.37193641611952
47.9399989396334 4.35819231158465
47.9599989391863 4.40794734750514
47.9799989387393 4.39455915874617
47.9999989382923 4.35363705864811
48.0199989378452 4.31192497815393
48.0399989373982 4.37630873156259
48.0599989369512 4.47936629217927
48.0799989365041 4.42683237307603
48.0999989360571 4.3530173089665
48.1199989356101 4.16409739818964
48.139998935163 4.09021922867564
48.159998934716 4.08062888725935
48.179998934269 4.13957369508344
48.1999989338219 4.30557261157677
48.2199989333749 4.40146705069415
48.2399989329278 4.48714068769155
48.2599989324808 4.43436811438645
48.2799989320338 4.36563703629084
48.2999989315867 4.31169216090283
48.3199989311397 4.31148556273739
48.3399989306927 4.37113142605212
48.3599989302456 4.47068300415146
48.3799989297986 4.52209555392291
48.3999989293516 4.5031370471076
48.4199989289045 4.43952857440448
48.4399989284575 4.39334717995353
48.4599989280105 4.36758605573899
48.4799989275634 4.34973166135584
48.4999989271164 4.34447932693217
48.5199989266694 4.30675392951087
48.5399989262223 4.28951688952899
48.5599989257753 4.27855136084881
48.5799989253283 4.26712631221514
48.5999989248812 4.22355116509466
48.6199989244342 4.17201208424861
48.6399989239872 4.22622455318977
48.6599989235401 4.25419675804121
48.6799989230931 4.32517895640021
48.699998922646 4.33948414482673
48.719998922199 4.40824846575822
48.739998921752 4.43448130454564
48.7599989213049 4.41237262943557
48.7799989208579 4.31869927468774
48.7999989204109 4.24278768992793
48.8199989199638 4.22860747181465
48.8399989195168 4.27926641826173
48.8599989190698 4.32333572869051
48.8799989186227 4.34457931462212
48.8999989181757 4.33996328654379
48.9199989177287 4.29607929860169
48.9399989172816 4.28747422769074
48.9599989168346 4.24763223021253
48.9799989163876 4.27393980414103
48.9999989159405 4.33352030566307
49.0199989154935 4.40223825559325
49.0399989150465 4.36511701286883
49.0599989145994 4.30675782298083
49.0799989141524 4.19709600590653
49.0999989137053 4.19988055897814
49.1199989132583 4.19560841807676
49.1399989128113 4.23652299955126
49.1599989123642 4.24782094007356
49.1799989119172 4.2391851953311
49.1999989114702 4.18979560506024
49.2199989110231 4.18421183789213
49.2399989105761 4.18860557444901
49.2599989101291 4.25578440700628
49.279998909682 4.20509906463787
49.299998909235 4.18480818902433
49.319998908788 4.17987256891185
49.3399989083409 4.32765381310495
49.3599989078939 4.37662390440233
49.3799989074469 4.3512314012071
49.3999989069998 4.23837480616471
49.4199989065528 4.20463063923838
49.4399989061058 4.2247013791169
49.4599989056587 4.24997201411446
49.4799989052117 4.27598839771663
49.4999989047647 4.30450499386094
49.5199989043176 4.3069836419249
49.5399989038706 4.34570184504186
49.5599989034235 4.37094317364237
49.5799989029765 4.35547420369322
49.5999989025295 4.31765545135446
49.6199989020824 4.35078125566562
49.6399989016354 4.34121838864843
49.6599989011884 4.28779152685505
49.6799989007413 4.22535920957948
49.6999989002943 4.25949140365121
49.7199988998473 4.28653023076643
49.7399988994002 4.25304368362752
49.7599988989532 4.22560836028986
49.7799988985062 4.17880563060547
49.7999988980591 4.19173051073209
49.8199988976121 4.22093153106602
49.8399988971651 4.23893419346654
49.859998896718 4.20941059254957
49.879998896271 4.24411506050348
49.899998895824 4.27054522008241
49.9199988953769 4.30486830570077
49.9399988949299 4.27089916079163
49.9599988944829 4.34854545838121
49.9799988940358 4.32268692081711
49.9999988935888 4.32925868312289
50.0199988931417 4.25453825444812
50.0399988926947 4.28451266476855
50.0599988922477 4.23076156637883
50.0799988918006 4.20931050551802
50.0999988913536 4.11023834053159
50.1199988909066 4.13791154636967
50.1399988904595 4.17739538645781
50.1599988900125 4.23562099673637
50.1799988895655 4.18267019202307
50.1999988891184 4.16670425360839
50.2199988886714 4.24089704908824
50.2399988882244 4.31375973317834
50.2599988877773 4.3088738714884
50.2799988873303 4.23469328896975
50.2999988868833 4.16774951403223
50.3199988864362 4.13896971495145
50.3399988859892 4.16692501982691
50.3599988855422 4.19652222951151
50.3799988850951 4.2516211854242
50.3999988846481 4.2886358063897
50.4199988842011 4.33030136053483
50.439998883754 4.27997933619123
50.459998883307 4.23118728935196
50.4799988828599 4.14999544340367
50.4999988824129 4.1437651686097
50.5199988819659 4.14649792197192
50.5399988815188 4.23858617288334
50.5599988810718 4.24649739223891
50.5799988806248 4.23171508810673
50.5999988801777 4.12530224520559
50.6199988797307 4.12797713813603
50.6399988792837 4.1258656950819
50.6599988788366 4.18252950305474
50.6799988783896 4.1660898786165
50.6999988779426 4.19031367492492
50.7199988774955 4.21969567291523
50.7399988770485 4.28255312106012
50.7599988766015 4.24352514226313
50.7799988761544 4.21174258504368
50.7999988757074 4.2517793223311
50.8199988752604 4.29021052355424
50.8399988748133 4.22310132205911
50.8599988743663 4.13948348482146
50.8799988739192 4.0945403462807
50.8999988734722 4.12062085430995
50.9199988730252 4.12245699512238
50.9399988725781 4.18868111831146
50.9599988721311 4.25150742314634
50.9799988716841 4.25721823127823
50.999998871237 4.27201006465054
51.01999887079 4.23725421627272
51.039998870343 4.24386674334043
51.0599988698959 4.18558148058895
51.0799988694489 4.16442768539973
51.0999988690019 4.12568421176046
51.1199988685548 4.17266098025958
51.1399988681078 4.22733846777123
51.1599988676608 4.24063579642602
51.1799988672137 4.17726600924691
51.1999988667667 4.09791715647242
51.2199988663197 4.12065223611267
51.2399988658726 4.22184679526965
51.2599988654256 4.28609271706985
51.2799988649786 4.29732937625833
51.2999988645315 4.22560237070871
51.3199988640845 4.23901877596339
51.3399988636374 4.25249033708856
51.3599988631904 4.34191982005105
51.3799988627434 4.34209249956773
51.3999988622963 4.32813191040258
51.4199988618493 4.21332635068395
51.4399988614023 4.18856910867703
51.4599988609552 4.28464967898135
51.4799988605082 4.37083661742553
51.4999988600612 4.38761490672055
51.5199988596141 4.26031268598488
51.5399988591671 4.15871676687743
51.5599988587201 4.16856960751744
51.579998858273 4.27519445035821
51.599998857826 4.36186460861601
51.619998857379 4.38709291205069
51.6399988569319 4.4375181966099
51.6599988564849 4.64432326570626
51.6799988560379 4.77794102357766
51.6999988555908 4.77098160497914
51.7199988551438 4.81548559750794
51.7399988546968 4.85502980735982
51.7599988542497 4.97200416376605
51.7799988538027 4.85329647478535
51.7999988533556 4.86385961969423
51.8199988529086 4.8283671929641
51.8399988524616 4.84981577000425
51.8599988520145 4.85418984294281
51.8799988515675 4.82187928346007
51.8999988511205 4.7858626047606
51.9199988506734 4.71350448051265
51.9399988502264 4.6158393628845
51.9599988497794 4.54775762915792
51.9799988493323 4.44047138989157
51.9999988488853 4.37623560195692
52.0199988484383 4.23967012767603
52.0399988479912 4.1693919625168
52.0599988475442 4.20062825680277
52.0799988470972 4.24590420928282
52.0999988466501 4.28824539608831
52.1199988462031 4.22061251683662
52.1399988457561 4.17064786822561
52.159998845309 4.12651863068653
52.179998844862 4.19522251891811
52.1999988444149 4.30909619929997
52.2199988439679 4.36346971519425
52.2399988435209 4.32850651596645
52.2599988430738 4.24419215493455
52.2799988426268 4.19780802029367
52.2999988421798 4.20969922569077
52.3199988417327 4.2079351736492
52.3399988412857 4.17163126916134
52.3599988408387 4.14478107514182
52.3799988403916 4.15308257955821
52.3999988399446 4.20920074784389
52.4199988394976 4.26106588243418
52.4399988390505 4.27717645761815
52.4599988386035 4.26948770860845
52.4799988381565 4.28157476285635
52.4999988377094 4.34843613478135
52.5199988372624 4.343820706294
52.5399988368154 4.31079350245763
52.5599988363683 4.27222529737014
52.5799988359213 4.32960748366323
52.5999988354743 4.37906217240198
52.6199988350272 4.45688945386595
52.6399988345802 4.4603451976865
52.6599988341331 4.42744704621737
52.6799988336861 4.45772058007054
52.6999988332391 4.50379964818053
52.719998832792 4.51580396125451
52.739998832345 4.67876105356829
52.759998831898 4.7152427029231
52.7799988314509 4.73248478231421
52.7999988310039 4.77333813425885
52.8199988305569 4.87666718437314
52.8399988301098 4.92830450356452
52.8599988296628 4.92251892862815
52.8799988292158 4.87860795787405
52.8999988287687 4.88957478928892
52.9199988283217 4.91749458924642
52.9399988278747 4.90068573329334
52.9599988274276 4.82989840172462
52.9799988269806 4.66263864686868
52.9999988265336 4.58539167890376
53.0199988260865 4.57036435435707
53.0399988256395 4.58098808977945
53.0599988251925 4.47122549833909
53.0799988247454 4.45790565568112
53.0999988242984 4.40674314313581
53.1199988238513 4.4030202834148
53.1399988234043 4.41206121313607
53.1599988229573 4.31551037809719
53.1799988225102 4.25746271556635
53.1999988220632 4.23767765547019
53.2199988216162 4.23547206533156
53.2399988211691 4.2759934777222
53.2599988207221 4.21112353541158
53.2799988202751 4.21829857327415
53.299998819828 4.18966802155973
53.319998819381 4.22733805190204
53.339998818934 4.22312973122592
53.3599988184869 4.16068389254844
53.3799988180399 4.14230947286479
53.3999988175929 4.13985980391752
53.4199988171458 4.15960914183757
53.4399988166988 4.17883704802093
53.4599988162518 4.18447055713189
53.4799988158047 4.18543180720367
53.4999988153577 4.20765541074468
53.5199988149107 4.2073671531764
53.5399988144636 4.25384412804943
53.5599988140166 4.2411934820568
53.5799988135695 4.24227142654795
53.5999988131225 4.2332300361055
53.6199988126755 4.21369069036632
53.6399988122284 4.15372343017361
53.6599988117814 4.11002272986225
53.6799988113344 4.16623606649956
53.6999988108873 4.12553358702743
53.7199988104403 4.06956496621963
53.7399988099933 3.97857358222315
53.7599988095462 4.07080402326916
53.7799988090992 4.14819333342136
53.7999988086522 4.21859382423489
53.8199988082051 4.16895822720706
53.8399988077581 4.13376979686101
53.8599988073111 4.10253140428493
53.879998806864 4.15170713087297
53.899998806417 4.18022947137605
53.91999880597 4.19920452598323
53.9399988055229 4.16647409771319
53.9599988050759 4.1611364862538
53.9799988046288 4.17822268718705
53.9999988041818 4.23211014361245
54.0199988037348 4.23683596652507
54.0399988032877 4.25922406351307
54.0599988028407 4.30651157054194
54.0799988023937 4.37156095534423
54.0999988019466 4.42436559639091
54.1199988014996 4.36872501024126
54.1399988010526 4.36086833886352
54.1599988006055 4.26161190198785
54.1799988001585 4.21819191722745
54.1999987997115 4.14523628128252
54.2199987992644 4.15194807302707
54.2399987988174 4.21053071051492
54.2599987983704 4.23775989882173
54.2799987979233 4.2112367901337
54.2999987974763 4.21808578356517
54.3199987970293 4.15933558073033
54.3399987965822 4.19935743482722
54.3599987961352 4.17174853931476
54.3799987956882 4.20955682952537
54.3999987952411 4.16120072581337
54.4199987947941 4.10821752266435
54.439998794347 4.12823908615925
54.4599987939 4.15707098618324
54.479998793453 4.14361702470122
54.4999987930059 4.07368992474958
54.5199987925589 4.02509440093981
54.5399987921119 3.9972086882956
54.5599987916648 3.98872967209381
54.5799987912178 4.10686180945235
54.5999987907708 4.13829469003808
54.6199987903237 4.19898324901631
54.6399987898767 4.07972336759224
54.6599987894297 4.08680390903259
54.6799987889826 4.068005308914
54.6999987885356 4.09430674985166
54.7199987880886 4.11221535625794
54.7399987876415 4.13960214560972
54.7599987871945 4.25036118470828
54.7799987867475 4.27091905225236
54.7999987863004 4.21976702218527
54.8199987858534 4.19673033262653
54.8399987854064 4.19138869103327
54.8599987849593 4.24062142485381
54.8799987845123 4.18606712003789
54.8999987840652 4.12638315762492
54.9199987836182 4.05200449161603
54.9399987831712 4.01118481779107
54.9599987827241 4.07519748374205
54.9799987822771 4.13684462181946
54.9999987818301 4.27521933670054
55.019998781383 4.27327378516398
55.039998780936 4.26462535615777
55.059998780489 4.17280570639103
55.0799987800419 4.20050896128531
55.0999987795949 4.17785031893892
55.1199987791479 4.09232412554156
55.1399987787008 4.04837120831962
55.1599987782538 4.02374210266757
55.1799987778068 4.02248130536674
55.1999987773597 3.98152149803911
55.2199987769127 4.06064024501295
55.2399987764657 4.13459255759565
55.2599987760186 4.15918873959584
55.2799987755716 4.13138319659408
55.2999987751246 4.103125713946
55.3199987746775 4.06950677971406
55.3399987742305 3.9675441576562
55.3599987737834 3.99134982751463
55.3799987733364 4.05313462999043
55.3999987728894 4.20691548062379
55.4199987724423 4.22614917084926
55.4399987719953 4.18157588040828
55.4599987715483 4.14624076927378
55.4799987711012 4.20577539377131
55.4999987706542 4.26803519675287
55.5199987702072 4.45911156937051
55.5399987697601 4.51810986328162
55.5599987693131 4.55613714801926
55.5799987688661 4.44055203729705
55.599998768419 4.46448562959145
55.619998767972 4.4495799457229
55.639998767525 4.5030629241136
55.6599987670779 4.47237516824246
55.6799987666309 4.47415900409626
55.6999987661839 4.33846270471315
55.7199987657368 4.29658071201849
55.7399987652898 4.30255511934814
55.7599987648427 4.37195674053148
55.7799987643957 4.35986780609809
55.7999987639487 4.31675709046537
55.8199987635016 4.28015793277078
55.8399987630546 4.28457012221503
55.8599987626076 4.22184649098507
55.8799987621605 4.20037762329291
55.8999987617135 4.15424000211967
55.9199987612665 4.19359253155987
55.9399987608194 4.16852565906583
55.9599987603724 4.30144355691657
55.9799987599254 4.37174959703727
55.9999987594783 4.37739680077973
56.0199987590313 4.35671828834968
56.0399987585843 4.43722965792539
56.0599987581372 4.4218850116451
56.0799987576902 4.34544703930549
56.0999987572432 4.31124688491606
56.1199987567961 4.34169241235996
56.1399987563491 4.44165542877383
56.1599987559021 4.56503051354954
56.179998755455 4.66834266386006
56.199998755008 4.78152711122309
56.2199987545609 4.81226619380013
56.2399987541139 4.9448624776461
56.2599987536669 4.92075882711813
56.2799987532198 4.90327749287307
56.2999987527728 4.84314498314003
56.3199987523258 4.7737595600445
56.3399987518787 4.61445814064651
56.3599987514317 4.52949235406306
56.3799987509847 4.47953842968956
56.3999987505376 4.57033923292529
56.4199987500906 4.64295860518687
56.4399987496436 4.9118245138342
56.4599987491965 4.93574018309158
56.4799987487495 4.86812542603542
56.4999987483025 4.62407458802929
56.5199987478554 4.6844207528855
56.5399987474084 4.8145747665759
56.5599987469614 4.96727247018973
56.5799987465143 5.19052168988881
56.5999987460673 4.96435821425906
56.6199987456203 4.93248390724919
56.6399987451732 5.00386013560131
56.6599987447262 5.27029453595529
56.6799987442791 5.20596017662518
56.6999987438321 4.93182270582438
56.7199987433851 4.95018845742727
56.739998742938 4.91095190027359
56.759998742491 5.00863189944803
56.779998742044 5.25611728074184
56.7999987415969 5.32365190294193
56.8199987411499 5.84498538095816
56.8399987407029 5.92563826454812
56.8599987402558 6.49367623878103
56.8799987398088 5.0576123286337
56.8999987393618 4.38831946317444
