'Id: "" Comment: "Integrate frame 2018_8-7 FAGACs_2p5FASCN_2p5PEAI001.gfrmwith cursor Full Frame Cursor #4" Operator: "MAF user" Anode: "Cu" Scantype: "TwoTheta" TimePerStep: "90" 
10.7399997711182 6.98285347639997
10.7599997706711 6.66347495822355
10.7799997702241 6.69427055523398
10.7999997697771 6.63579892967354
10.81999976933 6.15117806825074
10.839999768883 5.81114552553247
10.859999768436 5.64674195170993
10.8799997679889 5.41378829990194
10.8999997675419 5.3172558171913
10.9199997670949 5.26553989614204
10.9399997666478 5.31039352159737
10.9599997662008 5.2421976813048
10.9799997657537 5.0759184363592
10.9999997653067 4.82123143457174
11.0199997648597 4.82338133293401
11.0399997644126 4.94392113038399
11.0599997639656 5.09732902140329
11.0799997635186 5.06720426894332
11.0999997630715 4.99109636670246
11.1199997626245 4.94283783247166
11.1399997621775 4.95965448748788
11.1599997617304 5.02934560056755
11.1799997612834 4.97954847725989
11.1999997608364 4.96477252420874
11.2199997603893 4.92914477618249
11.2399997599423 5.01119617169142
11.2599997594953 4.93908053054548
11.2799997590482 5.00915570416066
11.2999997586012 4.89462062650124
11.3199997581542 4.89023954951972
11.3399997577071 4.84090896229374
11.3599997572601 4.88240046385707
11.379999756813 4.85445859891159
11.399999756366 4.71952607540699
11.419999755919 4.78487531012121
11.4399997554719 4.86694726607201
11.4599997550249 4.96341382623588
11.4799997545779 4.89495700116548
11.4999997541308 4.79881706391635
11.5199997536838 4.74150246767366
11.5399997532368 4.76482085805748
11.5599997527897 4.81515805052873
11.5799997523427 4.85148873945795
11.5999997518957 4.87296205222101
11.6199997514486 4.83397163762277
11.6399997510016 4.76715700528766
11.6599997505546 4.64890984822818
11.6799997501075 4.70765149359747
11.6999997496605 4.75493188030405
11.7199997492135 4.74583833546004
11.7399997487664 4.66088799295473
11.7599997483194 4.62131259646343
11.7799997478724 4.64184282507599
11.7999997474253 4.64708276293014
11.8199997469783 4.61050987703255
11.8399997465312 4.6738389205084
11.8599997460842 4.71757894414892
11.8799997456372 4.7538309247385
11.8999997451901 4.69910412731782
11.9199997447431 4.66630464843634
11.9399997442961 4.64913510022856
11.959999743849 4.71465638311672
11.979999743402 4.79836110102924
11.999999742955 4.79419597661982
12.0199997425079 4.75844978337184
12.0399997420609 4.69495662818163
12.0599997416139 4.79570850069398
12.0799997411668 4.85570762418298
12.0999997407198 4.86749847007328
12.1199997402728 4.80956751108762
12.1399997398257 4.8720434098489
12.1599997393787 4.82977658822191
12.1799997389317 4.80186939385873
12.1999997384846 4.67142686291109
12.2199997380376 4.75686919893363
12.2399997375906 4.8232190921804
12.2599997371435 4.83092450930571
12.2799997366965 4.77786883604949
12.2999997362494 4.78779063191307
12.3199997358024 4.84356101646863
12.3399997353554 4.79414865637184
12.3599997349083 4.63279847008487
12.3799997344613 4.52966013087034
12.3999997340143 4.55712066005902
12.4199997335672 4.67214344366792
12.4399997331202 4.73241231061825
12.4599997326732 4.72777813994485
12.4799997322261 4.67114661185891
12.4999997317791 4.66570646497469
12.5199997313321 4.62221564417811
12.539999730885 4.68643067813456
12.559999730438 4.68405303661008
12.579999729991 4.77777680717586
12.5999997295439 4.81188710356553
12.6199997290969 4.80473998232647
12.6399997286499 4.80078202678636
12.6599997282028 4.79468550638683
12.6799997277558 4.77446603318178
12.6999997273088 4.69998369158578
12.7199997268617 4.66692071610279
12.7399997264147 4.68207454976719
12.7599997259676 4.69636218596682
12.7799997255206 4.6924469449203
12.7999997250736 4.70625043709766
12.8199997246265 4.68943264124212
12.8399997241795 4.66538249112996
12.8599997237325 4.6350126395962
12.8799997232854 4.71117125200595
12.8999997228384 4.80942865619986
12.9199997223914 4.84808561900783
12.9399997219443 4.73285680601569
12.9599997214973 4.67182524450908
12.9799997210503 4.67601776837344
12.9999997206032 4.70003599620972
13.0199997201562 4.68768421730616
13.0399997197092 4.62926386417029
13.0599997192621 4.68094880474756
13.0799997188151 4.70307031003329
13.0999997183681 4.71199332387235
13.119999717921 4.67997269855617
13.139999717474 4.68317396700808
13.1599997170269 4.74555774873246
13.1799997165799 4.73014458326463
13.1999997161329 4.71227674613496
13.2199997156858 4.73752110544342
13.2399997152388 4.76527450665653
13.2599997147918 4.72925687870111
13.2799997143447 4.75598235479838
13.2999997138977 4.76749974716383
13.3199997134507 4.84244871238048
13.3399997130036 4.81741491135698
13.3599997125566 4.8516352703312
13.3799997121096 4.8252952883716
13.3999997116625 4.77103401025774
13.4199997112155 4.72878502488785
13.4399997107685 4.71835775911272
13.4599997103214 4.66904233512321
13.4799997098744 4.70649669920327
13.4999997094274 4.68378433681663
13.5199997089803 4.70934133801139
13.5399997085333 4.73553842581343
13.5599997080863 4.78330107385695
13.5799997076392 4.81572843514844
13.5999997071922 4.81663809674369
13.6199997067451 4.86265828747062
13.6399997062981 4.84883711148746
13.6599997058511 4.83000140110725
13.679999705404 4.76880730847842
13.699999704957 4.85144473443387
13.71999970451 4.91178179540179
13.7399997040629 4.95295820193989
13.7599997036159 4.88591633941309
13.7799997031689 4.81770303214906
13.7999997027218 4.73581520805385
13.8199997022748 4.7370100539792
13.8399997018278 4.81499538305805
13.8599997013807 4.86909721470122
13.8799997009337 4.82705953094697
13.8999997004867 4.80438115516343
13.9199997000396 4.85540624243067
13.9399996995926 4.94589634612074
13.9599996991456 4.97618997224762
13.9799996986985 5.04316621196469
13.9999996982515 5.05561352249932
14.0199996978045 5.06920317206626
14.0399996973574 5.10368082398178
14.0599996969104 5.06871583509925
14.0799996964633 5.0059787603966
14.0999996960163 4.9714610997912
14.1199996955693 5.02136467058111
14.1399996951222 5.04531779990941
14.1599996946752 5.06068832312065
14.1799996942282 5.10602691001075
14.1999996937811 5.21066587127284
14.2199996933341 5.30520652573733
14.2399996928871 5.28169135342598
14.25999969244 5.2616635862953
14.279999691993 5.3877796096959
14.299999691546 5.49947456653054
14.3199996910989 5.67753925822796
14.3399996906519 5.77228176047401
14.3599996902049 5.75377898998439
14.3799996897578 5.71978385920312
14.3999996893108 5.80237340178865
14.4199996888638 5.80536455644875
14.4399996884167 5.90837118955172
14.4599996879697 6.30200313403244
14.4799996875226 6.46299828824433
14.4999996870756 6.66170162338244
14.5199996866286 7.45359012965484
14.5399996861815 7.85561530559019
14.5599996857345 8.71792901451659
14.5799996852875 12.8540384649334
14.5999996848404 16.2067961010585
14.6199996843934 22.1759393192566
14.6399996839464 50.9759932436965
14.6599996834993 64.0437974921867
14.6799996830523 73.1623779761839
14.6999996826053 99.6202052798395
14.7199996821582 104.333731575565
14.7399996817112 102.166653739658
14.7599996812642 78.8189438842798
14.7799996808171 66.6664306417381
14.7999996803701 58.640026756698
14.8199996799231 30.1920535405898
14.839999679476 20.248604943653
14.859999679029 16.6349148420468
14.879999678582 10.3749670788946
14.8999996781349 8.25744613521309
14.9199996776879 7.65159202762106
14.9399996772408 6.71154593645213
14.9599996767938 6.28585618963947
14.9799996763468 6.12634374198977
14.9999996758997 5.79492244447076
15.0199996754527 5.61448628976744
15.0399996750057 5.57475519436152
15.0599996745586 5.5502991829164
15.0799996741116 5.53806805750785
15.0999996736646 5.45767224825212
15.1199996732175 5.33848280481444
15.1399996727705 5.29090640033528
15.1599996723235 5.33457640735371
15.1799996718764 5.24945675060886
15.1999996714294 5.2205761918641
15.2199996709824 5.24073599869188
15.2399996705353 5.19583761869907
15.2599996700883 5.08559136994412
15.2799996696413 5.02658919884535
15.2999996691942 4.97095108234284
15.3199996687472 4.93689793345405
15.3399996683002 4.92157250453654
15.3599996678531 4.92588755496002
15.3799996674061 4.90481697764833
15.399999666959 4.92723166159579
15.419999666512 4.9412918041918
15.439999666065 4.94895343457667
15.4599996656179 4.97120012605961
15.4799996651709 4.97614118069323
15.4999996647239 4.97433374519121
15.5199996642768 4.97038046724157
15.5399996638298 4.93662639099072
15.5599996633828 4.90778614163221
15.5799996629357 4.90728706159145
15.5999996624887 4.92000953286325
15.6199996620417 4.91295280564565
15.6399996615946 4.94914377806769
15.6599996611476 4.94795427384647
15.6799996607006 4.97037422133285
15.6999996602535 4.95237358341467
15.7199996598065 4.9032562944113
15.7399996593595 4.82147205955016
15.7599996589124 4.84985806612774
15.7799996584654 4.8626733927794
15.7999996580184 4.85034775038767
15.8199996575713 4.8509241385215
15.8399996571243 4.90835883551681
15.8599996566772 4.94848149771169
15.8799996562302 4.94655154127942
15.8999996557832 4.92808982596566
15.9199996553361 4.91231678720356
15.9399996548891 4.87932631571294
15.9599996544421 4.88219001741985
15.979999653995 4.91837760539469
15.999999653548 4.92075080855737
16.019999653101 4.90011559292411
16.0399996526539 4.88439295440821
16.0599996522069 4.92715451496791
16.0799996517599 4.90142786518587
16.0999996513128 4.87487685239633
16.1199996508658 4.90764895300026
16.1399996504188 4.96239464737191
16.1599996499717 4.99825507713997
16.1799996495247 5.02212710496868
16.1999996490777 5.03439935583373
16.2199996486306 4.98622614330304
16.2399996481836 4.91978557760932
16.2599996477365 4.8887516339895
16.2799996472895 4.87263815598395
16.2999996468425 4.89002800102164
16.3199996463954 4.91822500530044
16.3399996459484 4.93113146974158
16.3599996455014 4.95837505981821
16.3799996450543 4.97640991266295
16.3999996446073 5.00568215124867
16.4199996441603 4.99435682047867
16.4399996437132 4.96747070988432
16.4599996432662 4.99215432336197
16.4799996428192 4.99811644492681
16.4999996423721 4.90797379006395
16.5199996419251 4.84166274454009
16.5399996414781 4.8490690757092
16.559999641031 4.91001504245438
16.579999640584 4.90797219790375
16.599999640137 4.8296193763321
16.6199996396899 4.79864118200545
16.6399996392429 4.84949095399165
16.6599996387959 4.94166098207928
16.6799996383488 5.03306902280516
16.6999996379018 5.08145602932131
16.7199996374547 5.05610205063221
16.7399996370077 4.99479714148689
16.7599996365607 4.95662379641509
16.7799996361136 4.9678098783362
16.7999996356666 4.9123330722516
16.8199996352196 4.89908748479464
16.8399996347725 4.91371250493953
16.8599996343255 4.96076371448366
16.8799996338785 4.97760296136805
16.8999996334314 4.99721417465777
16.9199996329844 5.02138908083405
16.9399996325374 5.01092420307669
16.9599996320903 4.99851506392355
16.9799996316433 4.98815049102787
16.9999996311963 4.99981906827026
17.0199996307492 5.00294625206727
17.0399996303022 4.97398806647844
17.0599996298552 4.97223730457241
17.0799996294081 5.0615400037356
17.0999996289611 5.09337873731201
17.1199996285141 5.07232356728069
17.139999628067 5.01941885322926
17.15999962762 5.0190014628353
17.1799996271729 5.07290175315769
17.1999996267259 5.14367389232286
17.2199996262789 5.17119778203924
17.2399996258318 5.12614770164132
17.2599996253848 5.1309396667743
17.2799996249378 5.15443529183615
17.2999996244907 5.14924920952966
17.3199996240437 5.11688508910263
17.3399996235967 5.14350067301025
17.3599996231496 5.20658815516935
17.3799996227026 5.17465090488885
17.3999996222556 5.1402370799659
17.4199996218085 5.1634064534556
17.4399996213615 5.21052979494474
17.4599996209145 5.20568585508782
17.4799996204674 5.16597081581776
17.4999996200204 5.12433408603435
17.5199996195734 5.15135357661433
17.5399996191263 5.19407571868476
17.5599996186793 5.23502053639332
17.5799996182323 5.26865602270024
17.5999996177852 5.2214695460531
17.6199996173382 5.17142746155042
17.6399996168911 5.14848607095766
17.6599996164441 5.16294314472648
17.6799996159971 5.07673989561347
17.69999961555 5.00308160005424
17.719999615103 5.04024429969077
17.739999614656 5.12993153557032
17.7599996142089 5.18446886343758
17.7799996137619 5.16386082995768
17.7999996133149 5.15996833183267
17.8199996128678 5.18995528606409
17.8399996124208 5.21643043519452
17.8599996119738 5.18910765429854
17.8799996115267 5.19325236782736
17.8999996110797 5.24422029377407
17.9199996106327 5.24519174585841
17.9399996101856 5.21666635315673
17.9599996097386 5.22291028729621
17.9799996092916 5.27443390657497
17.9999996088445 5.33238100099441
18.0199996083975 5.34004263100802
18.0399996079504 5.30141372581603
18.0599996075034 5.27393738061189
18.0799996070564 5.26466600399849
18.0999996066093 5.25931963605522
18.1199996061623 5.25915421316009
18.1399996057153 5.260445101053
18.1599996052682 5.26750691130365
18.1799996048212 5.24952736142834
18.1999996043742 5.28272169780795
18.2199996039271 5.33282836721254
18.2399996034801 5.40405640350951
18.2599996030331 5.38436611553702
18.279999602586 5.36270707345226
18.299999602139 5.37401815558116
18.319999601692 5.33885191145968
18.3399996012449 5.23784628808415
18.3599996007979 5.19274129441703
18.3799996003509 5.21961343979632
18.3999995999038 5.25911782331616
18.4199995994568 5.26946653241053
18.4399995990098 5.2467781245201
18.4599995985627 5.27110447854597
18.4799995981157 5.30626476972681
18.4999995976686 5.37173671031258
18.5199995972216 5.3749128161113
18.5399995967746 5.45823250309391
18.5599995963275 5.5251474655356
18.5799995958805 5.50179862402343
18.5999995954335 5.43452175686875
18.6199995949864 5.42023988832025
18.6399995945394 5.47293398717452
18.6599995940924 5.4986755057552
18.6799995936453 5.51768426329332
18.6999995931983 5.4828570798994
18.7199995927513 5.40658776937504
18.7399995923042 5.34897186580592
18.7599995918572 5.37195601871289
18.7799995914102 5.42379417622634
18.7999995909631 5.4176197843755
18.8199995905161 5.37585346826981
18.8399995900691 5.32479991744176
18.859999589622 5.39834903479608
18.879999589175 5.49024479336038
18.899999588728 5.53281023709511
18.9199995882809 5.52819131133667
18.9399995878339 5.48865883982968
18.9599995873868 5.47557380665767
18.9799995869398 5.49130908182198
18.9999995864928 5.5794352526534
19.0199995860457 5.62004873299567
19.0399995855987 5.58671380610072
19.0599995851517 5.53369833693803
19.0799995847046 5.56004540405142
19.0999995842576 5.6099424439898
19.1199995838106 5.62540787040115
19.1399995833635 5.60083016751727
19.1599995829165 5.58020414515895
19.1799995824695 5.58476693355295
19.1999995820224 5.62706605302217
19.2199995815754 5.6594925879825
19.2399995811284 5.66303646667112
19.2599995806813 5.65743367911162
19.2799995802343 5.64826549555686
19.2999995797873 5.65992833972109
19.3199995793402 5.69539541613101
19.3399995788932 5.75173637751012
19.3599995784462 5.75359155157682
19.3799995779991 5.73086856207366
19.3999995775521 5.73926020218905
19.419999577105 5.80027330684347
19.439999576658 5.78808214460291
19.459999576211 5.73667310416028
19.4799995757639 5.69360468020882
19.4999995753169 5.71340072725221
19.5199995748699 5.73963256404942
19.5399995744228 5.78631230831057
19.5599995739758 5.79683714173758
19.5799995735288 5.78717365427705
19.5999995730817 5.81028014984464
19.6199995726347 5.83482846956189
19.6399995721877 5.87114988713273
19.6599995717406 5.94124503858757
19.6799995712936 5.96242188408451
19.6999995708466 5.91864805361235
19.7199995703995 5.81155172675306
19.7399995699525 5.77333446202853
19.7599995695055 5.81021505289432
19.7799995690584 5.87960254164159
19.7999995686114 5.92100392616772
19.8199995681643 5.91131030690937
19.8399995677173 5.92130517261887
19.8599995672703 5.97251784569399
19.8799995668232 5.99845180975655
19.8999995663762 6.02865714610004
19.9199995659292 6.00215600583731
19.9399995654821 5.99102316362565
19.9599995650351 5.93441066248246
19.9799995645881 5.91343205410133
19.999999564141 5.91816264049014
20.019999563694 5.97244022734617
20.039999563247 6.06619369430909
20.0599995627999 6.14027690546342
20.0799995623529 6.17626935739361
20.0999995619059 6.16341387916338
20.1199995614588 6.12666081133177
20.1399995610118 6.09444439247012
20.1599995605648 6.07766130428182
20.1799995601177 6.06809484109896
20.1999995596707 6.07561601691916
20.2199995592237 6.0110874912073
20.2399995587766 5.97775411683084
20.2599995583296 6.00440244231253
20.2799995578825 6.17027529493954
20.2999995574355 6.2379022155053
20.3199995569885 6.23923601909115
20.3399995565414 6.17791190290649
20.3599995560944 6.1481145609521
20.3799995556474 6.14890288346601
20.3999995552003 6.19896041671211
20.4199995547533 6.27271017515862
20.4399995543063 6.24158232744593
20.4599995538592 6.20217027443425
20.4799995534122 6.18578063746846
20.4999995529652 6.21163108658387
20.5199995525181 6.25652838405661
20.5399995520711 6.33379282730935
20.5599995516241 6.39181624412777
20.579999551177 6.42054052511783
20.59999955073 6.41654771670876
20.619999550283 6.3693313768205
20.6399995498359 6.46675620967219
20.6599995493889 6.70534503098728
20.6799995489419 7.06357383194881
20.6999995484948 7.52054526625481
20.7199995480478 8.12485759474793
20.7399995476007 8.88592711287587
20.7599995471537 9.62862684013708
20.7799995467067 10.2281535177492
20.7999995462596 10.5687835113717
20.8199995458126 10.7588592506205
20.8399995453656 10.9017849957478
20.8599995449185 10.9408984968989
20.8799995444715 10.7917269637574
20.8999995440245 10.4410743722866
20.9199995435774 10.0883915612756
20.9399995431304 9.77856729193755
20.9599995426834 9.25266564835938
20.9799995422363 8.60125128924248
20.9999995417893 8.07495645554693
21.0199995413423 7.673162601243
21.0399995408952 7.31957853341836
21.0599995404482 7.04801596103667
21.0799995400012 6.86698137746165
21.0999995395541 6.72808542167792
21.1199995391071 6.54074773961128
21.13999953866 6.49871608365516
21.159999538213 6.55346221084923
21.179999537766 6.63780321030603
21.1999995373189 6.5987107417048
21.2199995368719 6.54782661642526
21.2399995364249 6.50275869217903
21.2599995359778 6.50092815582508
21.2799995355308 6.49564883694039
21.2999995350838 6.53862961681223
21.3199995346367 6.52851690742009
21.3399995341897 6.5801054633015
21.3599995337427 6.65913559085274
21.3799995332956 6.65913082143951
21.3999995328486 6.66500067550478
21.4199995324016 6.69253335603072
21.4399995319545 6.7597852569228
21.4599995315075 6.75732367790152
21.4799995310605 6.69930621376317
21.4999995306134 6.64959380493231
21.5199995301664 6.65781399119994
21.5399995297194 6.69234970415406
21.5599995292723 6.7216088825261
21.5799995288253 6.67456593922245
21.5999995283782 6.6261644857695
21.6199995279312 6.65070411279017
21.6399995274842 6.66666168969456
21.6599995270371 6.72223220707178
21.6799995265901 6.73951336379853
21.6999995261431 6.76476519783989
21.719999525696 6.74058345004029
21.739999525249 6.77128536268354
21.759999524802 6.73733879732419
21.7799995243549 6.6928545625022
21.7999995239079 6.69926878686289
21.8199995234609 6.73531864281852
21.8399995230138 6.7618571903663
21.8599995225668 6.77902037984036
21.8799995221198 6.76226180828
21.8999995216727 6.68808517930917
21.9199995212257 6.61993036952331
21.9399995207787 6.68669532632136
21.9599995203316 6.78790412545142
21.9799995198846 6.89380893262226
21.9999995194376 6.86992346887792
22.0199995189905 6.78129500662972
22.0399995185435 6.71446093342926
22.0599995180964 6.73352079992379
22.0799995176494 6.77455808082507
22.0999995172024 6.83028511405148
22.1199995167553 6.90433643787025
22.1399995163083 7.0069500705704
22.1599995158613 7.02783301962657
22.1799995154142 7.00834480259123
22.1999995149672 6.94649635738446
22.2199995145202 6.92731608843075
22.2399995140731 6.86648832116579
22.2599995136261 6.89717837959171
22.2799995131791 6.89399994655773
22.299999512732 6.94594259893772
22.319999512285 7.00427007231918
22.339999511838 7.04139937166871
22.3599995113909 7.11453437459818
22.3799995109439 7.09829849456933
22.3999995104969 7.03298615994211
22.4199995100498 6.95542167711708
22.4399995096028 6.96197138064921
22.4599995091558 7.03989726720675
22.4799995087087 7.06419761991588
22.4999995082617 7.0839989194676
22.5199995078146 7.15832612569135
22.5399995073676 7.19843585070773
22.5599995069206 7.22115358086213
22.5799995064735 7.13009966461582
22.5999995060265 7.10341548785445
22.6199995055795 7.14582344621687
22.6399995051324 7.21502392913669
22.6599995046854 7.28884143335677
22.6799995042384 7.3224139832102
22.6999995037913 7.37794437160666
22.7199995033443 7.43521607328535
22.7399995028973 7.46397864641317
22.7599995024502 7.43614618636438
22.7799995020032 7.43627249728578
22.7999995015562 7.36267760147885
22.8199995011091 7.22454016759692
22.8399995006621 7.13344332023906
22.8599995002151 7.16257484941791
22.879999499768 7.16473651877999
22.899999499321 7.12926271062109
22.9199994988739 7.11030806811411
22.9399994984269 7.14245656123313
22.9599994979799 7.22206984729679
22.9799994975328 7.26375841248213
22.9999994970858 7.25125121446881
23.0199994966388 7.21626925943913
23.0399994961917 7.23192347600145
23.0599994957447 7.25103263340764
23.0799994952977 7.19789965651371
23.0999994948506 7.12322859157199
23.1199994944036 7.12272749832064
23.1399994939566 7.16869165443155
23.1599994935095 7.19108926403082
23.1799994930625 7.19813238465733
23.1999994926155 7.24821740508165
23.2199994921684 7.30367094110868
23.2399994917214 7.29418502532475
23.2599994912744 7.22474818989102
23.2799994908273 7.20879191900871
23.2999994903803 7.23222361739561
23.3199994899333 7.25308534045161
23.3399994894862 7.28939982825262
23.3599994890392 7.25492362251544
23.3799994885921 7.22165278117965
23.3999994881451 7.22004835175667
23.4199994876981 7.29919774100132
23.439999487251 7.31768677377248
23.459999486804 7.31261456831087
23.479999486357 7.27828747861283
23.4999994859099 7.31850303094737
23.5199994854629 7.29430419451557
23.5399994850159 7.36328430504546
23.5599994845688 7.37201566401952
23.5799994841218 7.35041901735258
23.5999994836748 7.26066129502739
23.6199994832277 7.28960544529651
23.6399994827807 7.32619471024172
23.6599994823337 7.28934789282393
23.6799994818866 7.22687313503117
23.6999994814396 7.27180227311681
23.7199994809926 7.30713130909832
23.7399994805455 7.31310259895408
23.7599994800985 7.23911766805107
23.7799994796515 7.23047416666642
23.7999994792044 7.31565652030326
23.8199994787574 7.34102914832133
23.8399994783103 7.2589018445938
23.8599994778633 7.16105471861913
23.8799994774163 7.24745024587975
23.8999994769692 7.39783250427073
23.9199994765222 7.46328525983006
23.9399994760752 7.41259019712589
23.9599994756281 7.30799147223529
23.9799994751811 7.2939094549835
23.9999994747341 7.33322659897865
24.019999474287 7.36054973254083
24.03999947384 7.41179743835056
24.059999473393 7.38970613802531
24.0799994729459 7.39504103889965
24.0999994724989 7.33023506686366
24.1199994720519 7.31645053596693
24.1399994716048 7.24510948551525
24.1599994711578 7.17391647407689
24.1799994707108 7.14718917390025
24.1999994702637 7.13685310295073
24.2199994698167 7.21217674670513
24.2399994693697 7.35589292150875
24.2599994689226 7.34899078170854
24.2799994684756 7.22951956586054
24.2999994680285 7.16272989203423
24.3199994675815 7.23684403556332
24.3399994671345 7.27637484182287
24.3599994666874 7.21097629272132
24.3799994662404 7.17981712713619
24.3999994657934 7.24892510908976
24.4199994653463 7.3389538691419
24.4399994648993 7.40843283254667
24.4599994644523 7.3988542609305
24.4799994640052 7.39064952143899
24.4999994635582 7.40087608979487
24.5199994631112 7.45945451718918
24.5399994626641 7.45898135322269
24.5599994622171 7.3543764481271
24.5799994617701 7.20384556810273
24.599999461323 7.18156490082695
24.619999460876 7.23564377635124
24.639999460429 7.33929637303083
24.6599994599819 7.36308172659657
24.6799994595349 7.36441914318789
24.6999994590878 7.33593584490449
24.7199994586408 7.31048803728607
24.7399994581938 7.32406761438961
24.7599994577467 7.3542259669511
24.7799994572997 7.40520998174363
24.7999994568527 7.45393447295707
24.8199994564056 7.42863513627105
24.8399994559586 7.40631430112902
24.8599994555116 7.34355642683633
24.8799994550645 7.38920376694537
24.8999994546175 7.40785139698252
24.9199994541705 7.47361117319517
24.9399994537234 7.44190225072454
24.9599994532764 7.36985200421366
24.9799994528294 7.2768791831078
24.9999994523823 7.25699371319307
25.0199994519353 7.27575273995749
25.0399994514883 7.29722307571448
25.0599994510412 7.35226101279581
25.0799994505942 7.40690569711035
25.0999994501472 7.45072313191902
25.1199994497001 7.55284967835154
25.1399994492531 7.58182039865331
25.159999448806 7.54868670194905
25.179999448359 7.42332283588536
25.199999447912 7.39841167672496
25.2199994474649 7.47270060906919
25.2399994470179 7.72642477933023
25.2599994465709 7.97084362087846
25.2799994461238 8.22642661598085
25.2999994456768 8.37453339128448
25.3199994452298 8.54774222454183
25.3399994447827 8.66772327614434
25.3599994443357 8.65515419858854
25.3799994438887 8.5431921940455
25.3999994434416 8.38260488732442
25.4199994429946 8.17216739097073
25.4399994425476 7.99216024075416
25.4599994421005 7.76916148428567
25.4799994416535 7.61616486447406
25.4999994412065 7.50894863017852
25.5199994407594 7.39079002564369
25.5399994403124 7.38679520510882
25.5599994398654 7.38219585890976
25.5799994394183 7.40852226572402
25.5999994389713 7.38147334884331
25.6199994385242 7.33026784183007
25.6399994380772 7.33055864514684
25.6599994376302 7.31787796254938
25.6799994371831 7.3316764117142
25.6999994367361 7.25581691737856
25.7199994362891 7.21475805625085
25.739999435842 7.20477001338864
25.759999435395 7.21688144750321
25.779999434948 7.26642400344696
25.7999994345009 7.31018863942428
25.8199994340539 7.37888215066804
25.8399994336069 7.3737189979341
25.8599994331598 7.34155703805279
25.8799994327128 7.35227156027842
25.8999994322658 7.36247359732642
25.9199994318187 7.41110272757167
25.9399994313717 7.40260409810954
25.9599994309247 7.40657826775819
25.9799994304776 7.39978861331701
25.9999994300306 7.39243816862643
26.0199994295836 7.33497520501653
26.0399994291365 7.28376363716701
26.0599994286895 7.25780829341234
26.0799994282424 7.21120080940662
26.0999994277954 7.1558068632654
26.1199994273484 7.12653618884096
26.1399994269013 7.16821484478998
26.1599994264543 7.25093589601341
26.1799994260073 7.33732329065998
26.1999994255602 7.37955579687623
26.2199994251132 7.40279557354587
26.2399994246662 7.39836504149345
26.2599994242191 7.40394411339777
26.2799994237721 7.30270939894887
26.2999994233251 7.26313892340276
26.319999422878 7.21686352756764
26.339999422431 7.26601887815296
26.359999421984 7.26255280735463
26.3799994215369 7.21810565036356
26.3999994210899 7.15231787285289
26.4199994206429 7.20115931251256
26.4399994201958 7.27799755737291
26.4599994197488 7.27765151454281
26.4799994193017 7.2884867533234
26.4999994188547 7.3335161155973
26.5199994184077 7.41264532234221
26.5399994179606 7.31906066658764
26.5599994175136 7.26942383419327
26.5799994170666 7.29578685325945
26.5999994166195 7.37022306854095
26.6199994161725 7.47763055815081
26.6399994157255 7.48862298040233
26.6599994152784 7.39855171532622
26.6799994148314 7.26709062541362
26.6999994143844 7.23151467454393
26.7199994139373 7.30343097506208
26.7399994134903 7.30135882283151
26.7599994130433 7.37011113526497
26.7799994125962 7.41326382664958
26.7999994121492 7.48733816165916
26.8199994117022 7.47556321228083
26.8399994112551 7.46464322419611
26.8599994108081 7.42898701670508
26.8799994103611 7.37588280141917
26.899999409914 7.40178410352398
26.919999409467 7.40329555412118
26.9399994090199 7.37688517051961
26.9599994085729 7.30706166316574
26.9799994081259 7.26553816855161
26.9999994076788 7.24674089350784
27.0199994072318 7.23079974870857
27.0399994067848 7.25448701647849
27.0599994063377 7.31460517023924
27.0799994058907 7.33879236253131
27.0999994054437 7.35019229048584
27.1199994049966 7.34462244318133
27.1399994045496 7.37940109807628
27.1599994041026 7.39264529817697
27.1799994036555 7.39092667558052
27.1999994032085 7.34661998169738
27.2199994027615 7.33128707099019
27.2399994023144 7.43280632156724
27.2599994018674 7.50429281979546
27.2799994014204 7.49795331524189
27.2999994009733 7.36546250634964
27.3199994005263 7.31322957880318
27.3399994000793 7.34104925053025
27.3599993996322 7.39450094271225
27.3799993991852 7.41133594880615
27.3999993987381 7.39849144939866
27.4199993982911 7.35821187160287
27.4399993978441 7.39026537000121
27.459999397397 7.43769032881728
27.47999939695 7.47263036605117
27.499999396503 7.45955857625498
27.5199993960559 7.38109139985934
27.5399993956089 7.32195129321334
27.5599993951619 7.25490427642884
27.5799993947148 7.32205330746575
27.5999993942678 7.35952886694555
27.6199993938208 7.39755889407134
27.6399993933737 7.39250807731737
27.6599993929267 7.46839489769187
27.6799993924797 7.52933791831589
27.6999993920326 7.48539663507148
27.7199993915856 7.4470296893425
27.7399993911386 7.44150317990284
27.7599993906915 7.4473344900537
27.7799993902445 7.36984771832183
27.7999993897974 7.35352974296694
27.8199993893504 7.4109814062735
27.8399993889034 7.47475895189971
27.8599993884563 7.48882966124352
27.8799993880093 7.46410551206638
27.8999993875623 7.44659863913614
27.9199993871152 7.44968623559299
27.9399993866682 7.47607751694819
27.9599993862212 7.50100381187392
27.9799993857741 7.53549710907286
27.9999993853271 7.50286574544841
28.0199993848801 7.45352118630557
28.039999384433 7.36824888028627
28.059999383986 7.31312221408815
28.079999383539 7.4156015348379
28.0999993830919 7.50613724606874
28.1199993826449 7.65668691206417
28.1399993821979 7.6986635509808
28.1599993817508 7.6543132483384
28.1799993813038 7.56333570219903
28.1999993808568 7.46600256596998
28.2199993804097 7.44294231908604
28.2399993799627 7.50413668616151
28.2599993795156 7.54974567989375
28.2799993790686 7.61026284853652
28.2999993786216 7.57347110074486
28.3199993781745 7.58144764003899
28.3399993777275 7.55900397325322
28.3599993772805 7.57113512960442
28.3799993768334 7.57855611313783
28.3999993763864 7.58861505212203
28.4199993759394 7.60504092561436
28.4399993754923 7.56719509733801
28.4599993750453 7.54904640099129
28.4799993745983 7.60247801127103
28.4999993741512 7.69527593637264
28.5199993737042 7.70881241695937
28.5399993732572 7.75833121351589
28.5599993728101 7.84133588285392
28.5799993723631 7.88585617688518
28.5999993719161 7.86711155230054
28.619999371469 7.88675491065045
28.639999371022 7.88320230250907
28.659999370575 7.84654318213676
28.6799993701279 7.83713381283723
28.6999993696809 7.80354491947395
28.7199993692338 7.78519533883189
28.7399993687868 7.86096662469961
28.7599993683398 7.89288155773781
28.7799993678927 7.92816207840723
28.7999993674457 7.99438065650244
28.8199993669987 8.04694235702037
28.8399993665516 8.07651726934798
28.8599993661046 8.13453571162055
28.8799993656576 8.21972027049629
28.8999993652105 8.19132675071631
28.9199993647635 8.2633311152923
28.9399993643165 8.35213993324303
28.9599993638694 8.47678312279447
28.9799993634224 8.77333033609322
28.9999993629754 8.94124719680061
29.0199993625283 8.98280022736965
29.0399993620813 9.31539767892195
29.0599993616343 9.64558883447145
29.0799993611872 9.89720838600281
29.0999993607402 10.7783047041324
29.1199993602932 11.7105136941813
29.1399993598461 12.4277422536953
29.1599993593991 15.3842222759817
29.179999358952 19.6514387098087
29.199999358505 23.7104478719564
29.219999358058 34.6710892077989
29.2399993576109 46.6485341629483
29.2599993571639 52.8070294376129
29.2799993567169 62.1233956562032
29.2999993562698 70.6682040068632
29.3199993558228 72.9364109777524
29.3399993553758 72.2307669244577
29.3599993549287 69.1762480459043
29.3799993544817 65.4181306617065
29.3999993540347 56.6714108287267
29.4199993535876 45.011915772039
29.4399993531406 39.4586800208817
29.4599993526936 31.9247816033804
29.4799993522465 22.811868118022
29.4999993517995 19.5667500510948
29.5199993513525 16.2128663218158
29.5399993509054 12.4556318133664
29.5599993504584 11.172047049866
29.5799993500113 10.2287096771484
29.5999993495643 9.17409199316408
29.6199993491173 8.90044002459809
29.6399993486702 8.65065626618023
29.6599993482232 8.35706485233762
29.6799993477762 8.26792783612258
29.6999993473291 8.19839520126558
29.7199993468821 8.07993719260556
29.7399993464351 7.98046288675002
29.759999345988 7.92804628216618
29.779999345541 7.81546754041102
29.799999345094 7.77554129184653
29.8199993446469 7.86622410814848
29.8399993441999 7.8753789654973
29.8599993437529 7.81413596505569
29.8799993433058 7.70859114534764
29.8999993428588 7.6053410558333
29.9199993424118 7.58463544168527
29.9399993419647 7.53699096904141
29.9599993415177 7.54313175769737
29.9799993410707 7.63835082132498
29.9999993406236 7.66181876604917
30.0199993401766 7.64693541021038
30.0399993397295 7.57263887326959
30.0599993392825 7.57204423004588
30.0799993388355 7.51741884096823
30.0999993383884 7.46637797704649
30.1199993379414 7.38681072984655
30.1399993374944 7.37929321763566
30.1599993370473 7.31255294959692
30.1799993366003 7.29736587891575
30.1999993361533 7.30652925350048
30.2199993357062 7.36641281692049
30.2399993352592 7.34079174987704
30.2599993348122 7.19808397994309
30.2799993343651 7.06043786566916
30.2999993339181 7.01853764522903
30.3199993334711 7.05328127440511
30.339999333024 7.13474773094665
30.359999332577 7.17540784852003
30.37999933213 7.151063860876
30.3999993316829 7.18154516411902
30.4199993312359 7.21983678261551
30.4399993307889 7.24150847078042
30.4599993303418 7.26885914024388
30.4799993298948 7.22896373503252
30.4999993294477 7.17754803994283
30.5199993290007 7.10223491483419
30.5399993285537 7.02022917457412
30.5599993281066 7.10266330786309
30.5799993276596 7.15569808135893
30.5999993272126 7.15364305879075
30.6199993267655 7.07972910967852
30.6399993263185 7.07846958794717
30.6599993258715 7.18339858254234
30.6799993254244 7.21149893083384
30.6999993249774 7.27262363732565
30.7199993245304 7.19479463853658
30.7399993240833 7.11589934677782
30.7599993236363 6.98938228880624
30.7799993231893 7.02968187887133
30.7999993227422 7.08518634801771
30.8199993222952 7.06670037035356
30.8399993218482 6.9893712455386
30.8599993214011 6.93403508575226
30.8799993209541 6.89463342040091
30.8999993205071 6.85235914847013
30.91999932006 6.86231300250222
30.939999319613 6.94656383523636
30.9599993191659 7.00671854391213
30.9799993187189 7.04231451282219
30.9999993182719 7.09161619049025
31.0199993178248 7.0935340755278
31.0399993173778 7.04980089457511
31.0599993169308 7.06417724757765
31.0799993164837 7.15670401991461
31.0999993160367 7.15492002072493
31.1199993155897 7.01947394031104
31.1399993151426 6.97257814558484
31.1599993146956 6.99232391296909
31.1799993142486 7.00817400513091
31.1999993138015 6.928405719984
31.2199993133545 6.89760762692446
31.2399993129075 6.97389014801205
31.2599993124604 6.92080720061748
31.2799993120134 6.89626165286899
31.2999993115664 6.80422175850135
31.3199993111193 6.7867447939006
31.3399993106723 6.81672446246316
31.3599993102252 6.83720791714599
31.3799993097782 6.91814539276708
31.3999993093312 6.95943267640018
31.4199993088841 7.00388369296737
31.4399993084371 6.99368438064087
31.4599993079901 6.93357327198546
31.479999307543 6.92564941884124
31.499999307096 6.93139043120655
31.519999306649 6.97140240792471
31.5399993062019 6.95278314555059
31.5599993057549 6.92613945017599
31.5799993053079 6.91314379486692
31.5999993048608 6.9212835870165
31.6199993044138 6.89955065088879
31.6399993039668 6.93539056383769
31.6599993035197 6.93398412894361
31.6799993030727 6.91471393864626
31.6999993026257 6.84403302913972
31.7199993021786 6.78386970122018
31.7399993017316 6.74866464067921
31.7599993012846 6.71550303293416
31.7799993008375 6.68790880608402
31.7999993003905 6.69880338430831
31.8199992999434 6.71579182708377
31.8399992994964 6.72957170774195
31.8599992990494 6.7959309296809
31.8799992986023 6.81932637499768
31.8999992981553 6.88429956957835
31.9199992977083 6.8373942574243
31.9399992972612 6.86578169253751
31.9599992968142 6.86636587879458
31.9799992963672 6.89319487299585
31.9999992959201 6.85304626289161
32.0199992954731 6.78685861947561
32.0399992950261 6.72702957389334
32.059999294579 6.70128449454395
32.079999294132 6.73944798870472
32.099999293685 6.7105247156468
32.1199992932379 6.70253062360004
32.1399992927909 6.73442921011284
32.1599992923439 6.76937740619481
32.1799992918968 6.77442471651433
32.1999992914498 6.71323107899717
32.2199992910028 6.68552815433904
32.2399992905557 6.63659815484748
32.2599992901087 6.55972813290428
32.2799992896616 6.51461490827378
32.2999992892146 6.57034652343817
32.3199992887676 6.60017494892039
32.3399992883205 6.69840909217182
32.3599992878735 6.75299206532739
32.3799992874265 6.77591939362722
32.3999992869794 6.75288065562296
32.4199992865324 6.71811554143017
32.4399992860854 6.75571284848564
32.4599992856383 6.76984670712953
32.4799992851913 6.70185773913943
32.4999992847443 6.63522276338938
32.5199992842972 6.70425300223909
32.5399992838502 6.7550538889634
32.5599992834032 6.7708594495889
32.5799992829561 6.72502742636546
32.5999992825091 6.81633456473509
32.6199992820621 6.97183621666053
32.639999281615 7.12337996924545
32.659999281168 7.26772566347975
32.6799992807209 7.4978979669809
32.6999992802739 7.90461269538981
32.7199992798269 8.55587586928618
32.7399992793798 9.40297851718194
32.7599992789328 10.4188083469807
32.7799992784858 11.3409186789444
32.7999992780387 12.2734725375717
32.8199992775917 12.9659917087879
32.8399992771447 13.4030753346903
32.8599992766976 13.5920115127015
32.8799992762506 13.5030361644836
32.8999992758036 13.2370079462736
32.9199992753565 12.6041751918081
32.9399992749095 11.9093239021664
32.9599992744625 11.1301345133956
32.9799992740154 10.3201535969706
32.9999992735684 9.44540519047666
33.0199992731214 8.78006125438194
33.0399992726743 8.19974551362116
33.0599992722273 7.74064720021079
33.0799992717803 7.42006908225002
33.0999992713332 7.09664156661389
33.1199992708862 6.85760370037625
33.1399992704391 6.67320079085284
33.1599992699921 6.63744701483192
33.1799992695451 6.63083288767581
33.199999269098 6.6269692633293
33.219999268651 6.56254110719471
33.239999268204 6.48592429929349
33.2599992677569 6.391179394945
33.2799992673099 6.34163690458391
33.2999992668629 6.35415700726679
33.3199992664158 6.36677130601398
33.3399992659688 6.48948278656663
33.3599992655218 6.53540041900673
33.3799992650747 6.48644353893123
33.3999992646277 6.36398858746922
33.4199992641807 6.31961742362802
33.4399992637336 6.39948812666878
33.4599992632866 6.46973909749642
33.4799992628396 6.52508630700076
33.4999992623925 6.50057122193174
33.5199992619455 6.62940759409312
33.5399992614985 6.74429007402952
33.5599992610514 6.76650807836107
33.5799992606044 6.64011022293418
33.5999992601573 6.4899390353028
33.6199992597103 6.43714348608069
33.6399992592633 6.41869152612752
33.6599992588162 6.48818938737086
33.6799992583692 6.51214105269992
33.6999992579222 6.46511958232504
33.7199992574751 6.43763285758871
33.7399992570281 6.42893728219508
33.7599992565811 6.41991240904941
33.779999256134 6.41093634256243
33.799999255687 6.39139081962709
33.81999925524 6.39438760624403
33.8399992547929 6.30786564096353
33.8599992543459 6.31024286730739
33.8799992538989 6.28970780277513
33.8999992534518 6.37040210257686
33.9199992530048 6.37366023606154
33.9399992525578 6.37789093676278
33.9599992521107 6.3240554333336
33.9799992516637 6.32720666043316
33.9999992512167 6.28815800851024
34.0199992507696 6.27235033373356
34.0399992503226 6.2917405679848
34.0599992498755 6.35437870910825
34.0799992494285 6.38316040506295
34.0999992489815 6.34731371161595
34.1199992485344 6.33073259048588
34.1399992480874 6.24888623462655
34.1599992476404 6.19377551038525
34.1799992471933 6.21793413414971
34.1999992467463 6.23809252241668
34.2199992462993 6.22042562457926
34.2399992458522 6.21811385063324
34.2599992454052 6.24428537575465
34.2799992449582 6.1938201121495
34.2999992445111 6.10930853890275
34.3199992440641 6.13125131362211
34.3399992436171 6.18448931077727
34.35999924317 6.17824505354093
34.379999242723 6.20836253437569
34.399999242276 6.22968536514868
34.4199992418289 6.21568381138752
34.4399992413819 6.16612622713012
34.4599992409348 6.14386089756943
34.4799992404878 6.15716824911548
34.4999992400408 6.21129973153114
34.5199992395937 6.26994720769898
34.5399992391467 6.31830920420048
34.5599992386997 6.25010982747084
34.5799992382526 6.2696176389126
34.5999992378056 6.23294132313271
34.6199992373586 6.26303093309148
34.6399992369115 6.20599347032842
34.6599992364645 6.19740646751788
34.6799992360175 6.17187408012969
34.6999992355704 6.19244058835265
34.7199992351234 6.20688468585169
34.7399992346764 6.24425190143608
34.7599992342293 6.24658731628334
34.7799992337823 6.20875171931535
34.7999992333353 6.14709835759702
34.8199992328882 6.12178429886653
34.8399992324412 6.11241193532559
34.8599992319942 6.13662372236182
34.8799992315471 6.09298400865688
34.8999992311001 6.11643874038779
34.919999230653 6.12729010838089
34.939999230206 6.21095488688317
34.959999229759 6.16909079064471
34.9799992293119 6.19344869236469
34.9999992288649 6.131644646498
35.0199992284179 6.10711402740926
35.0399992279708 6.08519718957929
35.0599992275238 6.14048369525143
35.0799992270768 6.18453827049936
35.0999992266297 6.18716748930562
35.1199992261827 6.19275357391245
35.1399992257357 6.22339892780749
35.1599992252886 6.1968645966485
35.1799992248416 6.15537396523626
35.1999992243946 6.13064812023444
35.2199992239475 6.1902888557002
35.2399992235005 6.20389820595546
35.2599992230535 6.11624881101248
35.2799992226064 5.98787161558875
35.2999992221594 5.95072302323022
35.3199992217124 5.94747620368955
35.3399992212653 6.03256007229698
35.3599992208183 6.00545905017982
35.3799992203712 6.04749518242179
35.3999992199242 6.06620964354815
35.4199992194772 6.14641914465576
35.4399992190301 6.11230821415563
35.4599992185831 6.14383165546672
35.4799992181361 6.16973387888108
35.499999217689 6.15090049691768
35.519999217242 6.0889731191449
35.539999216795 6.0353879197616
35.5599992163479 5.97338132015586
35.5799992159009 5.95777307472937
35.5999992154539 5.94958016661922
35.6199992150068 6.04680468071807
35.6399992145598 6.04891241299407
35.6599992141128 6.01631319902644
35.6799992136657 5.96600467447917
35.6999992132187 5.97537177542616
35.7199992127717 6.07439161043119
35.7399992123246 6.17358555396334
35.7599992118776 6.17111336194096
35.7799992114306 6.1178097438634
35.7999992109835 6.09565081157903
35.8199992105365 6.20478644570228
35.8399992100894 6.36418200108814
35.8599992096424 6.60025252226098
35.8799992091954 6.71633604001916
35.8999992087483 6.92509184645202
35.9199992083013 7.09719456654219
35.9399992078543 7.30126442462376
35.9599992074072 7.40049022561957
35.9799992069602 7.34249696544503
35.9999992065132 7.2745608888844
36.0199992060661 7.07901347542583
36.0399992056191 6.84853756541623
36.0599992051721 6.70537176660168
36.079999204725 6.56392338876534
36.099999204278 6.39958160723213
36.119999203831 6.12228250193944
36.1399992033839 5.99128834557626
36.1599992029369 5.94161100704058
36.1799992024899 5.92056017555974
36.1999992020428 5.87567796606824
36.2199992015958 5.82941832395112
36.2399992011487 5.82312007127744
36.2599992007017 5.79553720150818
36.2799992002547 5.76557449831294
36.2999991998076 5.79759091912127
36.3199991993606 5.80842973198533
36.3399991989136 5.8405587899083
36.3599991984665 5.74061108286939
36.3799991980195 5.6961157916647
36.3999991975725 5.7006029021729
36.4199991971254 5.76925613720746
36.4399991966784 5.81547737136687
36.4599991962314 5.79037415443529
36.4799991957843 5.69953365563402
36.4999991953373 5.69048116909773
36.5199991948903 5.68830203576533
36.5399991944432 5.71850411971411
36.5599991939962 5.71600733052753
36.5799991935492 5.72800089317675
36.5999991931021 5.74030051564281
36.6199991926551 5.73848031970883
36.6399991922081 5.73420841153198
36.659999191761 5.71390723358274
36.679999191314 5.62451883068716
36.6999991908669 5.59081410070236
36.7199991904199 5.61342225360547
36.7399991899729 5.65514056991256
36.7599991895258 5.62890192909967
36.7799991890788 5.63503072961425
36.7999991886318 5.60952349853653
36.8199991881847 5.68397034804371
36.8399991877377 5.67763309615239
36.8599991872907 5.70350259832895
36.8799991868436 5.65967789283223
36.8999991863966 5.58162482347734
36.9199991859496 5.49531587142942
36.9399991855025 5.48475388265035
36.9599991850555 5.55579953017053
36.9799991846085 5.563982847497
36.9999991841614 5.56427856280263
37.0199991837144 5.55323187698535
37.0399991832674 5.56362936488041
37.0599991828203 5.57350574611179
37.0799991823733 5.64433605584094
37.0999991819263 5.66280211306156
37.1199991814792 5.65556907808276
37.1399991810322 5.60272771246923
37.1599991805851 5.58698676541068
37.1799991801381 5.57390961369462
37.1999991796911 5.5942140735362
37.219999179244 5.62545521208883
37.239999178797 5.5760820046087
37.25999917835 5.50492251386688
37.2799991779029 5.39809142358458
37.2999991774559 5.38469360731223
37.3199991770089 5.42754942343154
37.3399991765618 5.47356712745763
37.3599991761148 5.47001706641266
37.3799991756678 5.5179373834562
37.3999991752207 5.60986830701296
37.4199991747737 5.66645881603517
37.4399991743267 5.57383292948002
37.4599991738796 5.45751646163484
37.4799991734326 5.36446982618386
37.4999991729856 5.38115187186977
37.5199991725385 5.37745717204052
37.5399991720915 5.45193994183263
37.5599991716444 5.45912103514265
37.5799991711974 5.45283633953175
37.5999991707504 5.46229313275421
37.6199991703033 5.47132319377054
37.6399991698563 5.55024681984067
37.6599991694093 5.58044397908705
37.6799991689622 5.6145205503725
37.6999991685152 5.5267596126191
37.7199991680682 5.46437651791125
37.7399991676211 5.40055902043676
37.7599991671741 5.41908555344119
37.7799991667271 5.31606936285699
37.79999916628 5.30756133342298
37.819999165833 5.29559110951731
37.839999165386 5.34024118499848
37.8599991649389 5.32804125977987
37.8799991644919 5.30875110460667
37.8999991640449 5.34250235977592
37.9199991635978 5.39845741031048
37.9399991631508 5.4312830059018
37.9599991627038 5.42604188921377
37.9799991622567 5.4039251649047
37.9999991618097 5.41804637189496
38.0199991613626 5.43554980601277
38.0399991609156 5.51833510705885
38.0599991604686 5.52391885517191
38.0799991600215 5.49402495379432
38.0999991595745 5.36669123179847
38.1199991591275 5.39128817238967
38.1399991586804 5.41702367288313
38.1599991582334 5.44715581190302
38.1799991577864 5.38582610112605
38.1999991573393 5.37017151063899
38.2199991568923 5.30959347217651
38.2399991564453 5.28741378794209
38.2599991559982 5.2450637828096
38.2799991555512 5.2110639187151
38.2999991551042 5.21681145391749
38.3199991546571 5.23580461848668
38.3399991542101 5.23980599163709
38.3599991537631 5.22349470347194
38.379999153316 5.20851611740664
38.399999152869 5.2942336646476
38.419999152422 5.35628545093593
38.4399991519749 5.42816287604971
38.4599991515279 5.36898051395062
38.4799991510808 5.29372677213018
38.4999991506338 5.22299608818766
38.5199991501868 5.22438372449829
38.5399991497397 5.2510888694584
38.5599991492927 5.28739855279226
38.5799991488457 5.26430459740563
38.5999991483986 5.25306613020802
38.6199991479516 5.22051800894247
38.6399991475046 5.22497357494519
38.6599991470575 5.26904747214713
38.6799991466105 5.28543034124433
38.6999991461635 5.28137315866411
38.7199991457164 5.18856339957369
38.7399991452694 5.17928402450534
38.7599991448224 5.16575229489872
38.7799991443753 5.20202978546193
38.7999991439283 5.22082859029546
38.8199991434813 5.22725427527621
38.8399991430342 5.19578580535391
38.8599991425872 5.14061212159632
38.8799991421402 5.16837739752228
38.8999991416931 5.17727031944335
38.9199991412461 5.17499885484733
38.939999140799 5.13541197624343
38.959999140352 5.07221737180367
38.979999139905 5.02752693671615
38.9999991394579 5.05520938400406
39.0199991390109 5.16268158282685
39.0399991385639 5.18083038737127
39.0599991381168 5.14923749878158
39.0799991376698 5.08467872847176
39.0999991372228 5.06157365137462
39.1199991367757 5.04661726854404
39.1399991363287 5.06632185283259
39.1599991358817 5.10811234441246
39.1799991354346 5.13113455260317
39.1999991349876 5.09349340549489
39.2199991345406 5.08702005369653
39.2399991340935 5.10744062726498
39.2599991336465 5.14922549092509
39.2799991331995 5.12688873485938
39.2999991327524 5.0264721829753
39.3199991323054 4.9303880603933
39.3399991318583 4.93127329922901
39.3599991314113 5.0163132664115
39.3799991309643 5.07070415381863
39.3999991305172 5.07197197283656
39.4199991300702 5.05425082704153
39.4399991296232 5.09010648654955
39.4599991291761 5.13487772772338
39.4799991287291 5.11212720666397
39.4999991282821 5.12517826307177
39.519999127835 5.14175310923832
39.539999127388 5.17238013366816
39.559999126941 5.15017256742564
39.5799991264939 5.09685064314017
39.5999991260469 5.09220976184247
39.6199991255999 5.08593149730768
39.6399991251528 5.03532207932365
39.6599991247058 4.98257615962281
39.6799991242588 4.99335118756978
39.6999991238117 5.09279827681038
39.7199991233647 5.18060429258932
39.7399991229177 5.22122734998053
39.7599991224706 5.26877624282015
39.7799991220236 5.23992913218504
39.7999991215765 5.15612043946928
39.8199991211295 5.07768492319413
39.8399991206825 5.14782733727083
39.8599991202354 5.22472693715046
39.8799991197884 5.28550921502229
39.8999991193414 5.1419340165642
39.9199991188943 5.04251285826936
39.9399991184473 4.97600787908545
39.9599991180003 5.06055301450603
39.9799991175532 5.19725364597543
39.9999991171062 5.26323266241181
40.0199991166592 5.22404176419362
40.0399991162121 5.16904054669642
40.0599991157651 5.14262129742924
40.0799991153181 5.15843674619691
40.099999114871 5.09616818302162
40.119999114424 5.03715714414113
40.139999113977 5.0476682613358
40.1599991135299 5.14845949113744
40.1799991130829 5.24591409323237
40.1999991126359 5.22464683716657
40.2199991121888 5.1171967327081
40.2399991117418 5.03841564708681
40.2599991112947 5.00174802399111
40.2799991108477 5.04914616370205
40.2999991104007 5.02301696586527
40.3199991099536 5.0045439103706
40.3399991095066 4.95526116483477
40.3599991090596 5.03599679447491
40.3799991086125 5.06893563940603
40.3999991081655 5.04264564331698
40.4199991077185 4.97134136212774
40.4399991072714 5.01228072511404
40.4599991068244 5.06471039296181
40.4799991063774 5.16508640159006
40.4999991059303 5.14682382383214
40.5199991054833 5.12211126553131
40.5399991050363 5.046125695087
40.5599991045892 5.02640367102198
40.5799991041422 4.98546278456386
40.5999991036952 4.98890530612096
40.6199991032481 4.9447170401877
40.6399991028011 4.96729196721001
40.6599991023541 4.99719238413239
40.679999101907 5.02617398592222
40.69999910146 5.063556673324
40.7199991010129 5.06714621991867
40.7399991005659 5.13691412736899
40.7599991001189 5.1314019792022
40.7799990996718 5.07930741068213
40.7999990992248 5.02387055186242
40.8199990987778 5.0820562603065
40.8399990983307 5.09217402747575
40.8599990978837 4.99912465175565
40.8799990974367 4.9038875908633
40.8999990969896 4.96996298378588
40.9199990965426 5.13827852768276
40.9399990960956 5.1617618660095
40.9599990956485 5.07365767679055
40.9799990952015 5.00824326696013
40.9999990947545 5.0944763273725
41.0199990943074 5.1208659490394
41.0399990938604 5.11531776382123
41.0599990934134 5.06033526497196
41.0799990929663 5.03356905729194
41.0999990925193 5.00427692883829
41.1199990920722 5.10002510156279
41.1399990916252 5.21192195857791
41.1599990911782 5.23262571092585
41.1799990907311 5.17267763422485
41.1999990902841 5.06943296565684
41.2199990898371 5.06781156484522
41.23999908939 5.00595764160423
41.259999088943 5.09477795366576
41.279999088496 5.01441349526744
41.2999990880489 5.03130602876868
41.3199990876019 4.98454490209395
41.3399990871549 5.11497922259135
41.3599990867078 5.14314264057878
41.3799990862608 5.15395689645745
41.3999990858138 5.15280026487
41.4199990853667 5.18835058965266
41.4399990849197 5.24120706155663
41.4599990844727 5.26684181305349
41.4799990840256 5.31661650212476
41.4999990835786 5.43103001905939
41.5199990831316 5.51694231845514
41.5399990826845 5.55227071629012
41.5599990822375 5.62492553253783
41.5799990817904 5.84916528005228
41.5999990813434 6.08597292004315
41.6199990808964 6.35584963952799
41.6399990804493 6.5572097914693
41.6599990800023 6.85907213747956
41.6799990795553 7.15058372662438
41.6999990791082 7.469336716991
41.7199990786612 7.61581909683193
41.7399990782142 7.65256044698321
41.7599990777671 7.57667612215481
41.7799990773201 7.45587521293317
41.7999990768731 7.28033358497178
41.819999076426 7.0536497098993
41.839999075979 6.82784077869269
41.859999075532 6.54706322167557
41.8799990750849 6.33556023642292
41.8999990746379 6.08239633733511
41.9199990741909 5.90147828380861
41.9399990737438 5.74608029027567
41.9599990732968 5.5997789956461
41.9799990728498 5.4841174661519
41.9999990724027 5.37135813217096
42.0199990719557 5.31885859440529
42.0399990715086 5.23321164339147
42.0599990710616 5.18595326000206
42.0799990706146 5.1156733298827
42.0999990701675 5.06311802430317
42.1199990697205 5.01525037060999
42.1399990692735 5.0279759654378
42.1599990688264 4.93351882653694
42.1799990683794 4.9253040007546
42.1999990679324 4.94293867492764
42.2199990674853 5.06316653050699
42.2399990670383 5.08162604989248
42.2599990665913 5.07045260266406
42.2799990661442 5.04489721690096
42.2999990656972 5.0384041953144
42.3199990652502 5.06116121097463
42.3399990648031 5.0917190752885
42.3599990643561 5.07998686262173
42.3799990639091 5.07634844456274
42.399999063462 5.05295272530528
42.419999063015 5.08955093467826
42.4399990625679 5.07544969421643
42.4599990621209 5.02371387261918
42.4799990616739 4.97696570930779
42.4999990612268 4.92542587566524
42.5199990607798 4.98556646173465
42.5399990603328 5.04592977580018
42.5599990598857 5.04764030130145
42.5799990594387 4.96414820004327
42.5999990589917 4.83911645047859
42.6199990585446 4.85738297599922
42.6399990580976 4.99444587986519
42.6599990576506 5.0278892733963
42.6799990572035 5.04301005611198
42.6999990567565 5.00770120079035
42.7199990563095 4.97298144918783
42.7399990558624 4.92206193152586
42.7599990554154 4.91684271123163
42.7799990549684 5.07184676514704
42.7999990545213 5.18103051849305
42.8199990540743 5.20234574568307
42.8399990536273 5.19457938933271
42.8599990531802 5.08157237047019
42.8799990527332 4.99584785267468
42.8999990522861 4.9665897715667
42.9199990518391 5.01951590350882
42.9399990513921 5.06330332861379
42.959999050945 5.0176187118645
42.979999050498 5.03386316356368
42.999999050051 5.01983635828542
43.0199990496039 4.94863464186353
43.0399990491569 4.87304857712856
43.0599990487099 4.89318971817808
43.0799990482628 4.9451780005909
43.0999990478158 4.95588980801905
43.1199990473688 4.90212434083239
43.1399990469217 4.85355855542385
43.1599990464747 4.87634065749197
43.1799990460277 4.91371845508013
43.1999990455806 4.98894980602686
43.2199990451336 5.05496839894541
43.2399990446866 5.11489155624048
43.2599990442395 5.07163310754946
43.2799990437925 4.99335396142186
43.2999990433455 4.91173425724998
43.3199990428984 4.97576345981581
43.3399990424514 5.0023808891767
43.3599990420043 4.97567422011774
43.3799990415573 5.00014962169942
43.3999990411103 5.01342636460943
43.4199990406632 5.07693251180356
43.4399990402162 5.0494331370746
43.4599990397692 5.03465650367832
43.4799990393221 5.0212592248798
43.4999990388751 4.97085594039313
43.5199990384281 4.95505270645974
43.539999037981 4.98172394148732
43.559999037534 4.99900177168844
43.579999037087 5.00922852093498
43.5999990366399 4.99820042159021
43.6199990361929 4.95796219585918
43.6399990357459 4.88661978465601
43.6599990352988 4.898748753516
43.6799990348518 4.94987810592948
43.6999990344048 4.95340176660812
43.7199990339577 4.93811725480619
43.7399990335107 5.01327257330461
43.7599990330637 5.09606949072904
43.7799990326166 5.0354012702883
43.7999990321696 4.97263912351683
43.8199990317225 4.97212375803698
43.8399990312755 5.00718986110412
43.8599990308285 5.00307959640562
43.8799990303814 5.02884362936577
43.8999990299344 5.02882294278027
43.9199990294874 4.93020980589377
43.9399990290403 4.87189078566995
43.9599990285933 4.81775632624863
43.9799990281463 4.86563245482211
43.9999990276992 4.90225007255804
44.0199990272522 4.91690304410795
44.0399990268052 4.93291576373085
44.0599990263581 4.89497335226186
44.0799990259111 4.97455479569277
44.0999990254641 5.03982097425695
44.119999025017 5.05299340882328
44.13999902457 5.03942024853759
44.159999024123 5.07995834611115
44.1799990236759 5.19385729310881
44.1999990232289 5.32306220002632
44.2199990227818 5.54226622101315
44.2399990223348 5.77815881930144
44.2599990218878 6.10537798012521
44.2799990214407 6.57785611721359
44.2999990209937 6.79143235017769
44.3199990205467 6.96378795759999
44.3399990200996 7.1037038369794
44.3599990196526 7.37721396229354
44.3799990192056 7.42560295571457
44.3999990187585 7.33887495209873
44.4199990183115 7.11200436088969
44.4399990178645 6.94705315864912
44.4599990174174 6.91147154379844
44.4799990169704 6.70744070849191
44.4999990165234 6.44556475876516
44.5199990160763 6.24203803021574
44.5399990156293 6.17904574821956
44.5599990151823 6.10568838680368
44.5799990147352 5.76396706157066
44.5999990142882 5.57017044049642
44.6199990138412 5.49062048863374
44.6399990133941 5.35590649288902
44.6599990129471 5.23332223057105
44.6799990125 5.11100329558247
44.699999012053 5.05003464420945
44.719999011606 5.00516286368347
44.7399990111589 5.01767048054173
44.7599990107119 5.04544085374725
44.7799990102649 5.0787395116652
44.7999990098178 5.08138266902423
44.8199990093708 5.04546034774376
44.8399990089238 5.01308187458015
44.8599990084767 5.03503825006001
44.8799990080297 5.02386071685067
44.8999990075827 4.97578675955244
44.9199990071356 4.96758742065565
44.9399990066886 4.99138342506251
44.9599990062416 4.98755174348247
44.9799990057945 4.94245623985762
44.9999990053475 4.90908239168056
45.0199990049005 4.93840677031869
45.0399990044534 4.91482468451197
45.0599990040064 4.95535915784885
45.0799990035594 4.92461841647032
45.0999990031123 4.96883799494749
45.1199990026653 4.90941272805754
45.1399990022182 4.87883400846212
45.1599990017712 4.83924326405745
45.1799990013242 4.8706947936861
45.1999990008771 4.89024706455782
45.2199990004301 4.90122652156084
45.2399989999831 4.946741607599
45.259998999536 4.97088200640656
45.279998999089 4.93086510784878
45.299998998642 4.89912393602849
45.3199989981949 4.8665854180848
45.3399989977479 4.92405806439807
45.3599989973009 4.94769048681072
45.3799989968538 5.00049496739968
45.3999989964068 4.95535256312718
45.4199989959598 4.89136234434918
45.4399989955127 4.85386258629499
45.4599989950657 4.83575311934814
45.4799989946187 4.82156226264508
45.4999989941716 4.83753839754377
45.5199989937246 4.86266523448528
45.5399989932776 4.91686783582737
45.5599989928305 4.91647802622203
45.5799989923835 4.96790973643876
45.5999989919364 4.93820343764381
45.6199989914894 4.90853736592061
45.6399989910424 4.92485140536175
45.6599989905953 4.88585494457069
45.6799989901483 4.84217512204687
45.6999989897013 4.73674360939411
45.7199989892542 4.7421951089337
45.7399989888072 4.77358806232164
45.7599989883602 4.80410960417015
45.7799989879131 4.8782879718886
45.7999989874661 4.85490302470819
45.8199989870191 4.83965839091305
45.839998986572 4.84462718435097
45.859998986125 4.78963919519596
45.879998985678 4.72654155962219
45.8999989852309 4.67137632345293
45.9199989847839 4.72864774643538
45.9399989843369 4.77655778197267
45.9599989838898 4.74625695936043
45.9799989834428 4.71991457756878
45.9999989829957 4.64847885228726
46.0199989825487 4.62789445946048
46.0399989821017 4.6076993935856
46.0599989816546 4.61721159922243
46.0799989812076 4.63879894495278
46.0999989807606 4.6998854877504
46.1199989803135 4.80962130813748
46.1399989798665 4.81122371403049
46.1599989794195 4.7398829356136
46.1799989789724 4.64295971702426
46.1999989785254 4.65049848416385
46.2199989780784 4.66449666174655
46.2399989776313 4.64346488214701
46.2599989771843 4.59637746892608
46.2799989767373 4.6050082164579
46.2999989762902 4.66222439227538
46.3199989758432 4.66928046756812
46.3399989753962 4.74690029820751
46.3599989749491 4.70653079784407
46.3799989745021 4.72990040637332
46.3999989740551 4.65801675898283
46.419998973608 4.71405758840429
46.439998973161 4.70279570122029
46.4599989727139 4.76351207086873
46.4799989722669 4.84949524314048
46.4999989718199 4.94642279135243
46.5199989713728 4.91583953821655
46.5399989709258 4.84547722122926
46.5599989704788 4.76985098077211
46.5799989700317 4.8078038574425
46.5999989695847 4.77841123112353
46.6199989691377 4.75039714814613
46.6399989686906 4.7311025110158
46.6599989682436 4.80634093685723
46.6799989677966 4.94984358768461
46.6999989673495 5.03259758098386
46.7199989669025 5.0594942027035
46.7399989664555 5.07186170753978
46.7599989660084 5.13335900842839
46.7799989655614 5.2228322491293
46.7999989651144 5.25809428682773
46.8199989646673 5.27458878378962
46.8399989642203 5.28203398717805
46.8599989637733 5.30836672519226
46.8799989633262 5.24820185053495
46.8999989628792 5.11880534560032
46.9199989624321 4.99129857803961
46.9399989619851 4.98496944253856
46.9599989615381 5.00054385672504
46.979998961091 4.9825166046671
46.999998960644 4.89575487891441
47.019998960197 4.83161876856969
47.0399989597499 4.68711323388914
47.0599989593029 4.61592412093156
47.0799989588559 4.66698046946257
47.0999989584088 4.78385085849098
47.1199989579618 4.80854045564714
47.1399989575148 4.8178575235846
47.1599989570677 4.76256540971132
47.1799989566207 4.76360671493999
47.1999989561737 4.67639364662829
47.2199989557266 4.6135804598944
47.2399989552796 4.52075302382286
47.2599989548326 4.51230759474402
47.2799989543855 4.61061321570425
47.2999989539385 4.70670325596082
47.3199989534914 4.74994831986826
47.3399989530444 4.6537023129502
47.3599989525974 4.53395354408656
47.3799989521503 4.47754180118457
47.3999989517033 4.55752404899679
47.4199989512563 4.6758043467979
47.4399989508092 4.7116074655126
47.4599989503622 4.68525872587999
47.4799989499152 4.62671866360888
47.4999989494681 4.64797627755925
47.5199989490211 4.66183845044595
47.5399989485741 4.7555141868536
47.559998948127 4.78437907712984
47.57999894768 4.80494222253442
47.599998947233 4.7603640021116
47.6199989467859 4.64718799880311
47.6399989463389 4.5419665845721
47.6599989458919 4.5118661572156
47.6799989454448 4.52920694290828
47.6999989449978 4.56233278400072
47.7199989445508 4.59602166915654
47.7399989441037 4.66258211675631
47.7599989436567 4.67973330679805
47.7799989432096 4.67756369197072
47.7999989427626 4.6593769374097
47.8199989423156 4.62708625360629
47.8399989418685 4.59709598385907
47.8599989414215 4.62608380876297
47.8799989409745 4.65330116361249
47.8999989405274 4.59887518349821
47.9199989400804 4.49917939466735
47.9399989396334 4.52650157567528
47.9599989391863 4.62818792702602
47.9799989387393 4.64517222919603
47.9999989382923 4.60117411633534
48.0199989378452 4.57490738997447
48.0399989373982 4.60125800383211
48.0599989369512 4.61690388217605
48.0799989365041 4.57099880102729
48.0999989360571 4.59432267662669
48.1199989356101 4.58427483444955
48.139998935163 4.57934288982589
48.159998934716 4.59225301519669
48.179998934269 4.57028284095443
48.1999989338219 4.57946941570905
48.2199989333749 4.55805410366479
48.2399989329278 4.61464708669201
48.2599989324808 4.55858124131621
48.2799989320338 4.52678809550726
48.2999989315867 4.49492989465982
48.3199989311397 4.60984093870227
48.3399989306927 4.6748251881383
48.3599989302456 4.70087530145397
48.3799989297986 4.63184811224799
48.3999989293516 4.60969979601367
48.4199989289045 4.60091601177028
48.4399989284575 4.65775208368809
48.4599989280105 4.66000143790642
48.4799989275634 4.68911063223705
48.4999989271164 4.69706075148639
48.5199989266694 4.66703861988656
48.5399989262223 4.61186308684208
48.5599989257753 4.61020418072439
48.5799989253283 4.62098642270383
48.5999989248812 4.61000426887673
48.6199989244342 4.61371446301863
48.6399989239872 4.58613351636336
48.6599989235401 4.59424580409306
48.6799989230931 4.54828559799544
48.699998922646 4.55074740304784
48.719998922199 4.56640993150281
48.739998921752 4.63665931284991
48.7599989213049 4.61269901716063
48.7799989208579 4.54577664609634
48.7999989204109 4.48129051625862
48.8199989199638 4.50069394665059
48.8399989195168 4.59588543996134
48.8599989190698 4.66582227649453
48.8799989186227 4.71284608583215
48.8999989181757 4.69840401513693
48.9199989177287 4.6001953359354
48.9399989172816 4.52548995008412
48.9599989168346 4.46529314955096
48.9799989163876 4.51526612039483
48.9999989159405 4.64195681001273
49.0199989154935 4.68954082732151
49.0399989150465 4.71075394815614
49.0599989145994 4.62652254946081
49.0799989141524 4.67931499348167
49.0999989137053 4.65782504711573
49.1199989132583 4.64915659319775
49.1399989128113 4.59254510607102
49.1599989123642 4.54595707181322
49.1799989119172 4.55214935506774
49.1999989114702 4.5524779226832
49.2199989110231 4.50245717610647
49.2399989105761 4.46362697242842
49.2599989101291 4.48459610225327
49.279998909682 4.62319512608731
49.299998909235 4.6402422144327
49.319998908788 4.56416074336152
49.3399989083409 4.49064635373095
49.3599989078939 4.57800642928338
49.3799989074469 4.65687249233784
49.3999989069998 4.63820927453197
49.4199989065528 4.53983440892796
49.4399989061058 4.4657402472564
49.4599989056587 4.44826004118874
49.4799989052117 4.45663948994225
49.4999989047647 4.47233613899654
49.5199989043176 4.45504049808787
49.5399989038706 4.42857043460102
49.5599989034235 4.40748637410236
49.5799989029765 4.44242742664107
49.5999989025295 4.42176909539384
49.6199989020824 4.46124420413409
49.6399989016354 4.47848225887247
49.6599989011884 4.53137918286333
49.6799989007413 4.56410494486577
49.6999989002943 4.6177070154567
49.7199988998473 4.69231183964602
49.7399988994002 4.65944156639045
49.7599988989532 4.57671950174242
49.7799988985062 4.51949907536957
49.7999988980591 4.51352208451212
49.8199988976121 4.48345985350504
49.8399988971651 4.4406988328311
49.859998896718 4.46245603977944
49.879998896271 4.53119344744126
49.899998895824 4.51436781594237
49.9199988953769 4.47671151301151
49.9399988949299 4.40857229347586
49.9599988944829 4.44227527359265
49.9799988940358 4.44286714034351
49.9999988935888 4.47553218035004
50.0199988931417 4.40543964217545
50.0399988926947 4.46802400061514
50.0599988922477 4.45095067924491
50.0799988918006 4.50786278886588
50.0999988913536 4.48260646361446
50.1199988909066 4.47687188618675
50.1399988904595 4.47628830351096
50.1599988900125 4.45717347627801
50.1799988895655 4.46191133316424
50.1999988891184 4.43762878923232
50.2199988886714 4.46210869546622
50.2399988882244 4.50064942916136
50.2599988877773 4.4884334144639
50.2799988873303 4.4916702605812
50.2999988868833 4.49206663428926
50.3199988864362 4.44179044076522
50.3399988859892 4.38315374096418
50.3599988855422 4.32976772327804
50.3799988850951 4.33583278379852
50.3999988846481 4.28953421051273
50.4199988842011 4.27040575099928
50.439998883754 4.30783983672886
50.459998883307 4.37757566607083
50.4799988828599 4.38729475531662
50.4999988824129 4.37287493980483
50.5199988819659 4.37197404671563
50.5399988815188 4.40117822665159
50.5599988810718 4.42568105390542
50.5799988806248 4.46449000069025
50.5999988801777 4.47343654899433
50.6199988797307 4.47227030346511
50.6399988792837 4.39688930067643
50.6599988788366 4.37763823673929
50.6799988783896 4.45621160525308
50.6999988779426 4.54718878388559
50.7199988774955 4.55847987516664
50.7399988770485 4.43565180523862
50.7599988766015 4.38532260047268
50.7799988761544 4.3276326733632
50.7999988757074 4.41143892205311
50.8199988752604 4.4337963090427
50.8399988748133 4.49758417948465
50.8599988743663 4.4521733567002
50.8799988739192 4.52790630312957
50.8999988734722 4.50560568317103
50.9199988730252 4.54669818542934
50.9399988725781 4.42678487699908
50.9599988721311 4.40243004305272
50.9799988716841 4.36496359923791
50.999998871237 4.41319547677784
51.01999887079 4.48177535851476
51.039998870343 4.51155964168731
51.0599988698959 4.47378816449424
51.0799988694489 4.43556096375201
51.0999988690019 4.38334354434896
51.1199988685548 4.44335815924867
51.1399988681078 4.45294617563914
51.1599988676608 4.55227732260151
51.1799988672137 4.63254093644164
51.1999988667667 4.64917411129627
51.2199988663197 4.50530817977409
51.2399988658726 4.35973531617405
51.2599988654256 4.28464768392751
51.2799988649786 4.29978847972007
51.2999988645315 4.32244264127367
51.3199988640845 4.37056611977233
51.3399988636374 4.37832230571404
51.3599988631904 4.34195616775243
51.3799988627434 4.3516863311211
51.3999988622963 4.41787015264711
51.4199988618493 4.54677007961535
51.4399988614023 4.6322453704966
51.4599988609552 4.72254591903039
51.4799988605082 4.77215848624072
51.4999988600612 4.84478148556697
51.5199988596141 4.87938744418857
51.5399988591671 4.91426087510022
51.5599988587201 4.9335734010901
51.579998858273 4.9262579839507
51.599998857826 4.88092994141514
51.619998857379 4.89460811199071
51.6399988569319 4.92958918328125
51.6599988564849 4.98470067079735
51.6799988560379 4.94007888809799
51.6999988555908 4.89750190731182
51.7199988551438 4.84718700814074
51.7399988546968 4.78330334367503
51.7599988542497 4.6736052321092
51.7799988538027 4.60113147617031
51.7999988533556 4.58427195886546
51.8199988529086 4.58477850420188
51.8399988524616 4.57118737998884
51.8599988520145 4.52520163696303
51.8799988515675 4.5186330112146
51.8999988511205 4.50125757284362
51.9199988506734 4.43912716586481
51.9399988502264 4.40696132045133
51.9599988497794 4.36624363214268
51.9799988493323 4.39535150756717
51.9999988488853 4.40966482378884
52.0199988484383 4.46204211274369
52.0399988479912 4.46189135328381
52.0599988475442 4.45159692545371
52.0799988470972 4.34616244496495
52.0999988466501 4.38895762022098
52.1199988462031 4.39875289316655
52.1399988457561 4.42433470178818
52.159998845309 4.37359415358453
52.179998844862 4.39477353265874
52.1999988444149 4.42387713995158
52.2199988439679 4.49450879119037
52.2399988435209 4.48218803199023
52.2599988430738 4.49973312913293
52.2799988426268 4.48244485842321
52.2999988421798 4.4728353009174
52.3199988417327 4.40233435082606
52.3399988412857 4.42166117352513
52.3599988408387 4.39229859367422
52.3799988403916 4.43028107885918
52.3999988399446 4.39643647648513
52.4199988394976 4.40682682007887
52.4399988390505 4.40436052431642
52.4599988386035 4.38513536695677
52.4799988381565 4.3820681885523
52.4999988377094 4.37371163818761
52.5199988372624 4.36559691132676
52.5399988368154 4.2762536504627
52.5599988363683 4.25476185826656
52.5799988359213 4.2926020510165
52.5999988354743 4.44376964742884
52.6199988350272 4.48657882202699
52.6399988345802 4.5107105030008
52.6599988341331 4.51699820757978
52.6799988336861 4.51383122445851
52.6999988332391 4.46379220045547
52.719998832792 4.4154963122602
52.739998832345 4.41946267909026
52.759998831898 4.44993356618044
52.7799988314509 4.49631361520238
52.7999988310039 4.5559001331465
52.8199988305569 4.50542038452591
52.8399988301098 4.46216818458583
52.8599988296628 4.40353935101404
52.8799988292158 4.48306474111067
52.8999988287687 4.50633524898648
52.9199988283217 4.54432487180022
52.9399988278747 4.50073912063361
52.9599988274276 4.46620463390501
52.9799988269806 4.36914924991145
52.9999988265336 4.27261784945818
53.0199988260865 4.21946892138696
53.0399988256395 4.2514449962501
53.0599988251925 4.30566614353125
53.0799988247454 4.34304134420224
53.0999988242984 4.36708201518397
53.1199988238513 4.39813761226819
53.1399988234043 4.46103782694775
53.1599988229573 4.44609231036437
53.1799988225102 4.35749077025272
53.1999988220632 4.34376877252509
53.2199988216162 4.37296985465924
53.2399988211691 4.46533487318779
53.2599988207221 4.40380168860728
53.2799988202751 4.30646062088042
53.299998819828 4.24501714632587
53.319998819381 4.25414854329726
53.339998818934 4.31235367098403
53.3599988184869 4.36171239122364
53.3799988180399 4.38170957319811
53.3999988175929 4.38197251460437
53.4199988171458 4.4077579744507
53.4399988166988 4.3639345925357
53.4599988162518 4.36391645966643
53.4799988158047 4.32076672269335
53.4999988153577 4.3541521105861
53.5199988149107 4.36941815034901
53.5399988144636 4.35339819781862
53.5599988140166 4.33155317693354
53.5799988135695 4.32224615488389
53.5999988131225 4.37311688619148
53.6199988126755 4.42276791406977
53.6399988122284 4.40479099462372
53.6599988117814 4.39453314393733
53.6799988113344 4.35550556984538
53.6999988108873 4.4395392656762
53.7199988104403 4.47604860356934
53.7399988099933 4.59215418932949
53.7599988095462 4.59969329652548
53.7799988090992 4.66918791308406
53.7999988086522 4.6110318545024
53.8199988082051 4.66685315671185
53.8399988077581 4.72860137058162
53.8599988073111 4.76353739151143
53.879998806864 4.67764242713724
53.899998806417 4.61290141712383
53.91999880597 4.60737083687368
53.9399988055229 4.60843694455063
53.9599988050759 4.51322887883854
53.9799988046288 4.44483130189279
53.9999988041818 4.42354747839665
54.0199988037348 4.49685833741337
54.0399988032877 4.5189721923549
54.0599988028407 4.52961415555877
54.0799988023937 4.49486621311602
54.0999988019466 4.45831124810518
54.1199988014996 4.46399870041023
54.1399988010526 4.43104435040306
54.1599988006055 4.50309805521699
54.1799988001585 4.4646546122408
54.1999987997115 4.48590997347987
54.2199987992644 4.38876296263401
54.2399987988174 4.37529443803154
54.2599987983704 4.28823924168513
54.2799987979233 4.34390572542463
54.2999987974763 4.36196320733158
54.3199987970293 4.41107904664153
54.3399987965822 4.42958202855783
54.3599987961352 4.45100730705362
54.3799987956882 4.5091519750032
54.3999987952411 4.44438423149864
54.4199987947941 4.3778071520436
54.439998794347 4.35421170706956
54.4599987939 4.3798948867394
54.479998793453 4.41367283833526
54.4999987930059 4.35773985595515
54.5199987925589 4.35203997037742
54.5399987921119 4.34418055837791
54.5599987916648 4.38284778802407
54.5799987912178 4.36978766217954
54.5999987907708 4.34411991076675
54.6199987903237 4.32903763098523
54.6399987898767 4.36122339202987
54.6599987894297 4.40283598658449
54.6799987889826 4.46358659016042
54.6999987885356 4.47790271896948
54.7199987880886 4.47256090839496
54.7399987876415 4.41824604668151
54.7599987871945 4.41242546087402
54.7799987867475 4.396481913645
54.7999987863004 4.43874829426332
54.8199987858534 4.43855957604008
54.8399987854064 4.38196504350653
54.8599987849593 4.3191191693483
54.8799987845123 4.26061045499575
54.8999987840652 4.271645067591
54.9199987836182 4.3348284049389
54.9399987831712 4.33182683443751
54.9599987827241 4.38957804990094
54.9799987822771 4.34023232406935
54.9999987818301 4.37454488806553
55.019998781383 4.36176726752635
55.039998780936 4.35859463988432
55.059998780489 4.3348389644384
55.0799987800419 4.26321080034893
55.0999987795949 4.24853937655587
55.1199987791479 4.23339368109307
55.1399987787008 4.27934427135168
55.1599987782538 4.35175400779109
55.1799987778068 4.36684225713818
55.1999987773597 4.34280149131583
55.2199987769127 4.32616227668559
55.2399987764657 4.30063149460571
55.2599987760186 4.33205846688876
55.2799987755716 4.24594561325091
55.2999987751246 4.33376675432931
55.3199987746775 4.3799603746029
55.3399987742305 4.4693650090835
55.3599987737834 4.41498265077162
55.3799987733364 4.42624362318238
55.3999987728894 4.42854442403815
55.4199987724423 4.40432747948586
55.4399987719953 4.33164601195941
55.4599987715483 4.35192285721368
55.4799987711012 4.42618772924923
55.4999987706542 4.5135059074554
55.5199987702072 4.73672253351584
55.5399987697601 4.81538842195966
55.5599987693131 4.89910639131457
55.5799987688661 4.78209883910158
55.599998768419 4.7486814346977
55.619998767972 4.67034977615092
55.639998767525 4.63810660574285
55.6599987670779 4.65600795645131
55.6799987666309 4.6100614366108
55.6999987661839 4.59378956396336
55.7199987657368 4.58087624438303
55.7399987652898 4.65586243050556
55.7599987648427 4.66749398484046
55.7799987643957 4.60818035425328
55.7999987639487 4.56898943284307
55.8199987635016 4.58434126087976
55.8399987630546 4.66605864846715
55.8599987626076 4.68707828584442
55.8799987621605 4.84626288171768
55.8999987617135 4.91701599868353
55.9199987612665 4.98683047127888
55.9399987608194 4.99940389130911
55.9599987603724 5.01764117539353
55.9799987599254 5.06238217777354
55.9999987594783 4.91970528146498
56.0199987590313 4.97136313106749
56.0399987585843 4.96744138834892
56.0599987581372 5.08060816350886
56.0799987576902 5.05502925317916
56.0999987572432 5.06384326676669
56.1199987567961 5.03774394073556
56.1399987563491 4.9260878385733
56.1599987559021 4.87197655020611
56.179998755455 4.78873802572948
56.199998755008 4.93938151093663
56.2199987545609 4.94369158776731
56.2399987541139 4.93684684995092
56.2599987536669 4.73449746120594
56.2799987532198 4.66652504527654
56.2999987527728 4.62949375176117
56.3199987523258 4.58852695826358
56.3399987518787 4.40478907561707
56.3599987514317 4.34979727283396
56.3799987509847 4.41769422032128
56.3999987505376 4.7473610876924
56.4199987500906 5.01386841386537
56.4399987496436 4.98011582481749
56.4599987491965 4.7773598867241
56.4799987487495 4.67457289623877
56.4999987483025 4.9982996089956
56.5199987478554 5.16738035747973
56.5399987474084 5.12152388878279
56.5599987469614 4.72047919838539
56.5799987465143 4.47890423658435
56.5999987460673 4.34422430298611
56.6199987456203 4.45781802450826
56.6399987451732 4.41921799730925
56.6599987447262 4.3588696977384
56.6799987442791 4.37553929103697
56.6999987438321 4.75448291472929
56.7199987433851 4.95284714839439
56.739998742938 4.7436600239951
56.759998742491 4.60651768783729
56.779998742044 5.01767423282066
56.7999987415969 5.87170553344404
56.8199987411499 6.36810420452334
56.8399987407029 6.62911489633792
56.8599987402558 6.44916963638677
56.8799987398088 5.27962000135412
56.8999987393618 3.64048341539018
