Created as New Dataset,FAGACs+1p25PEAI
nm,A
850.0,-0.0034
849.0,0.0009
848.0,-0.0052
847.0,-0.0127
846.0,-0.0069
845.0,0.0011
844.0,-0.0027
843.0,-0.0002
842.0,-0.0030
841.0,-0.0053
840.0,-0.0050
839.0,-0.0043
838.0,-0.0013
837.0,-0.0006
836.0,0.0017
835.0,-0.0010
834.0,-0.0086
833.0,-0.0020
832.0,0.0014
831.0,-0.0057
830.0,-0.0009
829.0,-0.0048
828.0,-0.0043
827.0,-0.0044
826.0,-0.0055
825.0,-0.0057
824.0,-0.0046
823.0,-0.0085
822.0,-0.0076
821.0,-0.0049
820.0,-0.0058
819.0,-0.0012
818.0,-0.0027
817.0,-0.0014
816.0,0.0026
815.0,-0.0049
814.0,-0.0054
813.0,-0.0033
812.0,-0.0029
811.0,-0.0045
810.0,-0.0008
809.0,-0.0042
808.0,-0.0027
807.0,-0.0030
806.0,-0.0062
805.0,-0.0035
804.0,-0.0036
803.0,-0.0019
802.0,0.0014
801.0,-0.0033
800.0,-0.0065
799.0,-0.0022
798.0,-0.0032
797.0,0.0006
796.0,0.0013
795.0,-0.0067
794.0,-0.0028
793.0,-0.0051
792.0,-0.0036
791.0,-0.0012
790.0,-0.0018
789.0,-0.0050
788.0,-0.0030
787.0,-0.0025
786.0,-0.0023
785.0,-0.0067
784.0,-0.0056
783.0,-0.0051
782.0,-0.0039
781.0,-0.0025
780.0,-0.0034
779.0,-0.0042
778.0,-0.0041
777.0,-0.0047
776.0,-0.0047
775.0,-0.0058
774.0,-0.0015
773.0,-0.0028
772.0,-0.0023
771.0,-0.0038
770.0,-0.0042
769.0,-0.0044
768.0,-0.0028
767.0,-0.0011
766.0,-0.0042
765.0,-0.0055
764.0,-0.0050
763.0,-0.0023
762.0,-0.0030
761.0,-0.0044
760.0,-0.0077
759.0,-0.0058
758.0,-0.0066
757.0,-0.0037
756.0,-0.0017
755.0,-0.0035
754.0,-0.0049
753.0,-0.0043
752.0,-0.0033
751.0,-0.0027
750.0,-0.0022
749.0,-0.0041
748.0,-0.0032
747.0,-0.0056
746.0,-0.0060
745.0,-0.0034
744.0,-0.0027
743.0,-0.0032
742.0,-0.0042
741.0,-0.0043
740.0,-0.0034
739.0,-0.0047
738.0,-0.0054
737.0,-0.0042
736.0,-0.0038
735.0,-0.0031
734.0,-0.0038
733.0,-0.0042
732.0,-0.0036
731.0,-0.0043
730.0,-0.0022
729.0,-0.0025
728.0,-0.0025
727.0,-0.0040
726.0,-0.0058
725.0,-0.0038
724.0,-0.0027
723.0,-0.0052
722.0,-0.0047
721.0,-0.0030
720.0,-0.0040
719.0,-0.0052
718.0,-0.0059
717.0,-0.0049
716.0,-0.0048
715.0,-0.0041
714.0,-0.0028
713.0,-0.0017
712.0,-0.0024
711.0,-0.0041
710.0,-0.0045
709.0,-0.0048
708.0,-0.0037
707.0,-0.0029
706.0,-0.0038
705.0,-0.0037
704.0,-0.0015
703.0,-0.0000
702.0,0.0011
701.0,0.0013
700.0,-0.0002
699.0,-0.0009
698.0,0.0003
697.0,-0.0000
696.0,0.0000
695.0,0.0006
694.0,0.0007
693.0,0.0021
692.0,0.0026
691.0,0.0030
690.0,0.0036
689.0,0.0050
688.0,0.0069
687.0,0.0071
686.0,0.0066
685.0,0.0076
684.0,0.0091
683.0,0.0120
682.0,0.0142
681.0,0.0150
680.0,0.0175
679.0,0.0194
678.0,0.0215
677.0,0.0240
676.0,0.0266
675.0,0.0292
674.0,0.0338
673.0,0.0377
672.0,0.0414
671.0,0.0459
670.0,0.0506
669.0,0.0563
668.0,0.0618
667.0,0.0668
666.0,0.0710
665.0,0.0772
664.0,0.0833
663.0,0.0896
662.0,0.0964
661.0,0.1030
660.0,0.1107
659.0,0.1177
658.0,0.1240
657.0,0.1304
656.0,0.1380
655.0,0.1466
654.0,0.1535
653.0,0.1590
652.0,0.1666
651.0,0.1738
650.0,0.1791
649.0,0.1844
648.0,0.1899
647.0,0.1951
646.0,0.2020
645.0,0.2065
644.0,0.2103
643.0,0.2156
642.0,0.2211
641.0,0.2240
640.0,0.2262
639.0,0.2315
638.0,0.2358
637.0,0.2391
636.0,0.2413
635.0,0.2438
634.0,0.2458
633.0,0.2490
632.0,0.2516
631.0,0.2523
630.0,0.2546
629.0,0.2573
628.0,0.2586
627.0,0.2588
626.0,0.2621
625.0,0.2641
624.0,0.2644
623.0,0.2674
622.0,0.2674
621.0,0.2682
620.0,0.2705
619.0,0.2731
618.0,0.2745
617.0,0.2758
616.0,0.2761
615.0,0.2781
614.0,0.2795
613.0,0.2805
612.0,0.2822
611.0,0.2842
610.0,0.2855
609.0,0.2861
608.0,0.2877
607.0,0.2894
606.0,0.2912
605.0,0.2939
604.0,0.2945
603.0,0.2956
602.0,0.2980
601.0,0.2980
600.0,0.2998
599.0,0.3025
598.0,0.3045
597.0,0.3057
596.0,0.3063
595.0,0.3103
594.0,0.3111
593.0,0.3136
592.0,0.3134
591.0,0.3152
590.0,0.3168
589.0,0.3189
588.0,0.3198
587.0,0.3215
586.0,0.3232
585.0,0.3265
584.0,0.3249
583.0,0.3287
582.0,0.3298
581.0,0.3329
580.0,0.3313
579.0,0.3335
578.0,0.3366
577.0,0.3378
576.0,0.3396
575.0,0.3406
574.0,0.3419
573.0,0.3431
572.0,0.3439
571.0,0.3455
570.0,0.3495
569.0,0.3499
568.0,0.3520
567.0,0.3512
566.0,0.3535
565.0,0.3566
564.0,0.3559
563.0,0.3586
562.0,0.3596
561.0,0.3613
560.0,0.3625
559.0,0.3658
558.0,0.3666
557.0,0.3675
556.0,0.3694
555.0,0.3711
554.0,0.3708
553.0,0.3737
552.0,0.3733
551.0,0.3754
550.0,0.3772
549.0,0.3776
548.0,0.3814
547.0,0.3808
546.0,0.3835
545.0,0.3835
544.0,0.3845
543.0,0.3867
542.0,0.3902
541.0,0.3910
540.0,0.3931
539.0,0.3940
538.0,0.3959
537.0,0.3977
536.0,0.3979
535.0,0.4005
534.0,0.4029
533.0,0.4046
532.0,0.4055
531.0,0.4066
530.0,0.4092
529.0,0.4109
528.0,0.4126
527.0,0.4153
526.0,0.4170
525.0,0.4192
524.0,0.4201
523.0,0.4228
522.0,0.4237
521.0,0.4270
520.0,0.4288
519.0,0.4303
518.0,0.4333
517.0,0.4350
516.0,0.4375
515.0,0.4394
514.0,0.4417
513.0,0.4443
512.0,0.4471
511.0,0.4505
510.0,0.4538
509.0,0.4552
508.0,0.4591
507.0,0.4629
506.0,0.4661
505.0,0.4686
504.0,0.4716
503.0,0.4758
502.0,0.4806
501.0,0.4823
500.0,0.4867
