Created as New Dataset,FAGACs+5PEAI
nm,A
850.0,-0.0016
849.0,-0.0044
848.0,-0.0108
847.0,-0.0091
846.0,-0.0067
845.0,-0.0042
844.0,-0.0042
843.0,-0.0046
842.0,-0.0060
841.0,-0.0065
840.0,-0.0030
839.0,-0.0079
838.0,-0.0010
837.0,-0.0038
836.0,-0.0080
835.0,-0.0045
834.0,-0.0084
833.0,-0.0060
832.0,-0.0029
831.0,-0.0092
830.0,-0.0045
829.0,-0.0081
828.0,-0.0062
827.0,-0.0058
826.0,-0.0038
825.0,-0.0045
824.0,-0.0054
823.0,-0.0091
822.0,-0.0053
821.0,-0.0060
820.0,-0.0084
819.0,-0.0048
818.0,-0.0092
817.0,-0.0012
816.0,-0.0043
815.0,-0.0055
814.0,-0.0070
813.0,-0.0053
812.0,-0.0080
811.0,-0.0061
810.0,-0.0076
809.0,-0.0093
808.0,-0.0088
807.0,-0.0056
806.0,-0.0044
805.0,-0.0059
804.0,-0.0072
803.0,-0.0060
802.0,-0.0064
801.0,-0.0082
800.0,-0.0090
799.0,-0.0081
798.0,-0.0045
797.0,-0.0046
796.0,-0.0052
795.0,-0.0060
794.0,-0.0047
793.0,-0.0069
792.0,-0.0051
791.0,-0.0061
790.0,-0.0045
789.0,-0.0062
788.0,-0.0027
787.0,-0.0029
786.0,-0.0062
785.0,-0.0064
784.0,-0.0049
783.0,-0.0071
782.0,-0.0054
781.0,-0.0055
780.0,-0.0071
779.0,-0.0061
778.0,-0.0051
777.0,-0.0038
776.0,-0.0044
775.0,-0.0058
774.0,-0.0041
773.0,-0.0037
772.0,-0.0055
771.0,-0.0068
770.0,-0.0057
769.0,-0.0060
768.0,-0.0048
767.0,-0.0042
766.0,-0.0071
765.0,-0.0072
764.0,-0.0044
763.0,-0.0049
762.0,-0.0050
761.0,-0.0054
760.0,-0.0066
759.0,-0.0057
758.0,-0.0073
757.0,-0.0054
756.0,-0.0053
755.0,-0.0060
754.0,-0.0043
753.0,-0.0070
752.0,-0.0049
751.0,-0.0054
750.0,-0.0051
749.0,-0.0052
748.0,-0.0048
747.0,-0.0044
746.0,-0.0021
745.0,-0.0024
744.0,-0.0036
743.0,-0.0035
742.0,-0.0046
741.0,-0.0046
740.0,-0.0033
739.0,-0.0041
738.0,-0.0052
737.0,-0.0039
736.0,-0.0041
735.0,-0.0022
734.0,-0.0030
733.0,-0.0034
732.0,-0.0025
731.0,-0.0019
730.0,-0.0002
729.0,-0.0005
728.0,-0.0005
727.0,-0.0002
726.0,0.0005
725.0,0.0022
724.0,0.0029
723.0,0.0022
722.0,0.0031
721.0,0.0050
720.0,0.0049
719.0,0.0048
718.0,0.0046
717.0,0.0061
716.0,0.0065
715.0,0.0085
714.0,0.0112
713.0,0.0112
712.0,0.0112
711.0,0.0116
710.0,0.0130
709.0,0.0153
708.0,0.0176
707.0,0.0194
706.0,0.0196
705.0,0.0206
704.0,0.0243
703.0,0.0272
702.0,0.0296
701.0,0.0318
700.0,0.0336
699.0,0.0356
698.0,0.0384
697.0,0.0408
696.0,0.0430
695.0,0.0454
694.0,0.0486
693.0,0.0532
692.0,0.0553
691.0,0.0572
690.0,0.0622
689.0,0.0661
688.0,0.0691
687.0,0.0725
686.0,0.0762
685.0,0.0802
684.0,0.0828
683.0,0.0874
682.0,0.0921
681.0,0.0947
680.0,0.0982
679.0,0.1013
678.0,0.1055
677.0,0.1087
676.0,0.1096
675.0,0.1114
674.0,0.1135
673.0,0.1162
672.0,0.1180
671.0,0.1186
670.0,0.1205
669.0,0.1220
668.0,0.1234
667.0,0.1261
666.0,0.1253
665.0,0.1260
664.0,0.1282
663.0,0.1280
662.0,0.1284
661.0,0.1287
660.0,0.1293
659.0,0.1296
658.0,0.1293
657.0,0.1296
656.0,0.1299
655.0,0.1298
654.0,0.1306
653.0,0.1310
652.0,0.1312
651.0,0.1310
650.0,0.1302
649.0,0.1299
648.0,0.1296
647.0,0.1289
646.0,0.1297
645.0,0.1298
644.0,0.1300
643.0,0.1302
642.0,0.1303
641.0,0.1297
640.0,0.1291
639.0,0.1303
638.0,0.1304
637.0,0.1315
636.0,0.1317
635.0,0.1309
634.0,0.1306
633.0,0.1305
632.0,0.1316
631.0,0.1318
630.0,0.1316
629.0,0.1303
628.0,0.1323
627.0,0.1320
626.0,0.1323
625.0,0.1321
624.0,0.1327
623.0,0.1324
622.0,0.1329
621.0,0.1319
620.0,0.1320
619.0,0.1332
618.0,0.1333
617.0,0.1323
616.0,0.1325
615.0,0.1331
614.0,0.1331
613.0,0.1334
612.0,0.1332
611.0,0.1338
610.0,0.1346
609.0,0.1353
608.0,0.1350
607.0,0.1350
606.0,0.1347
605.0,0.1356
604.0,0.1361
603.0,0.1361
602.0,0.1361
601.0,0.1355
600.0,0.1360
599.0,0.1357
598.0,0.1372
597.0,0.1364
596.0,0.1369
595.0,0.1381
594.0,0.1386
593.0,0.1385
592.0,0.1383
591.0,0.1390
590.0,0.1391
589.0,0.1385
588.0,0.1392
587.0,0.1396
586.0,0.1397
585.0,0.1406
584.0,0.1407
583.0,0.1408
582.0,0.1423
581.0,0.1409
580.0,0.1415
579.0,0.1413
578.0,0.1416
577.0,0.1427
576.0,0.1426
575.0,0.1426
574.0,0.1422
573.0,0.1420
572.0,0.1413
571.0,0.1436
570.0,0.1449
569.0,0.1438
568.0,0.1454
567.0,0.1432
566.0,0.1440
565.0,0.1457
564.0,0.1452
563.0,0.1463
562.0,0.1467
561.0,0.1454
560.0,0.1451
559.0,0.1484
558.0,0.1479
557.0,0.1484
556.0,0.1475
555.0,0.1481
554.0,0.1488
553.0,0.1486
552.0,0.1486
551.0,0.1496
550.0,0.1488
549.0,0.1510
548.0,0.1513
547.0,0.1507
546.0,0.1504
545.0,0.1517
544.0,0.1516
543.0,0.1528
542.0,0.1528
541.0,0.1535
540.0,0.1534
539.0,0.1542
538.0,0.1536
537.0,0.1554
536.0,0.1544
535.0,0.1558
534.0,0.1560
533.0,0.1578
532.0,0.1577
531.0,0.1576
530.0,0.1592
529.0,0.1599
528.0,0.1594
527.0,0.1606
526.0,0.1596
525.0,0.1617
524.0,0.1616
523.0,0.1620
522.0,0.1613
521.0,0.1618
520.0,0.1617
519.0,0.1629
518.0,0.1632
517.0,0.1630
516.0,0.1631
515.0,0.1634
514.0,0.1637
513.0,0.1631
512.0,0.1640
511.0,0.1646
510.0,0.1643
509.0,0.1642
508.0,0.1647
507.0,0.1663
506.0,0.1672
505.0,0.1674
504.0,0.1666
503.0,0.1678
502.0,0.1678
501.0,0.1696
500.0,0.1704
